-60
-52
-52
-52
-48
-48
-52
-48
-48
-48
-52
-56
-52
-48
-48
-48
-48
-48
-52
-52
-52
-48
-44
-44
-44
-48
-44
-48
-48
-48
-44
-40
-40
-36
-32
-36
-36
-32
-32
-32
-28
-28
-28
-24
-24
-20
-16
-16
-16
-16
-16
-12
-8
-12
-12
-8
-4
0
0
0
0
4
8
4
8
12
16
12
20
24
24
32
44
52
52
56
60
68
72
72
76
76
72
72
72
68
64
64
60
56
56
56
52
48
40
28
16
8
0
-12
-20
-28
-32
-36
-40
-40
-48
-52
-52
-52
-52
-52
-52
-52
-52
-48
-52
-52
-52
-52
-48
-52
-52
-48
-48
-44
-48
-48
-48
-52
-52
-48
-44
-40
-36
-36
-28
-16
-12
-8
-8
0
0
0
0
4
8
12
12
8
8
12
8
8
8
12
8
8
8
4
0
0
0
-4
-12
-12
-16
-28
-40
-40
-44
-48
-48
-48
-48
-48
-48
-48
-48
-52
-52
-48
-48
-48
-52
-52
-52
-56
-52
-48
-48
-52
-52
-48
-48
-52
-52
-48
-48
-52
-52
-52
-48
-52
-48
-52
-48
-48
-48
-52
-52
-52
-60
-76
-88
-100
-108
-128
-116
-68
-16
28
80
128
172
220
268
320
368
416
468
512
500
448
396
344
292
244
196
148
96
44
-4
-56
-108
-132
-120
-104
-92
-80
-68
-60
-56
-48
-52
-56
-52
-48
-52
-52
-56
-52
-44
-48
-52
-52
-48
-52
-52
-52
-52
-52
-48
-52
-52
-44
-44
-48
-44
-44
-44
-40
-36
-36
-40
-36
-32
--64
-52
-52
-56
-52
-52
-52
-48
-52
-56
-56
-52
-52
-52
-48
-48
-48
-48
-48
-48
-48
-44
-44
-44
-48
-48
-48
-44
-44
-40
-40
-36
-36
-40
-36
-36
-36
-36
-32
-32
-28
-28
-28
-24
-20
-24
-16
-20
-16
-12
-12
-16
-16
-12
-8
-4
0
0
0
0
0
0
8
12
12
16
16
16
20
28
36
36
40
48
56
56
60
60
64
72
84
80
72
72
64
64
60
60
60
64
64
56
56
52
40
24
16
4
-4
-12
-20
-28
-32
-36
-40
-44
-48
-52
-52
-52
-48
-52
-52
-48
-48
-52
-52
-52
-48
-52
-52
-48
-48
-52
-48
-48
-52
-52
-52
-52
-52
-44
-40
-36
-32
-28
-28
-20
-12
-8
0
0
0
0
4
4
12
12
12
16
12
12
8
8
12
12
8
8
4
4
0
-4
-4
-4
-8
-12
-24
-28
-32
-40
-48
-48
-48
-48
-48
-52
-52
-52
-52
-52
-52
-48
-40
-44
-52
-52
-48
-48
-48
-48
-48
-52
-52
-52
-52
-56
-52
-48
-44
-48
-48
-48
-48
-52
-48
-44
-44
-48
-48
-48
-44
-52
-60
-72
-80
-96
-112
-128
-116
-68
-12
40
84
128
180
228
272
320
372
420
472
512
500
448
400
348
296
244
192
144
92
44
-4
-56
-104
-128
-116
-100
-84
-76
-68
-56
-52
-52
-48
-48
-48
-52
-52
-48
-48
-52
-52
-48
-48
-48
-44
-48
-52
-52
-52
-48
-44
-44
-44
-40
-44
-44
-40
-44
-44
-40
-40
-40
-40
-40
-40
-32
-32
-36
-32
-28
-28
-32
-28
-24
-20
-24
-20
-20
-20
-16
-12
-12
-8
-4
-4
0
-4
0
4
4
8
8
12
12
12
12
12
24
36
36
44
52
52
56
60
64
68
72
80
80
72
72
68
60
56
56
56
56
56
52
48
48
40
32
16
4
0
-12
-24
-32
-32
-36
-44
-48
-48
-52
-52
-52
-52
-52
-56
-48
-48
-48
-48
-52
-52
-52
-52
-48
-52
-52
-52
-48
-48
-52
-52
-52
-52
-48
-44
-40
-32
-24
-24
-20
-12
-4
0
0
0
0
0
0
12
16
12
12
8
8
12
12
8
8
8
4
4
0
0
-4
-4
-8
-12
-20
-24
-28
-36
-40
-44
-48
-52
-52
-52
-52
-52
-52
-48
-48
-48
-48
-48
-52
-52
-48
-48
-48
-48
-48
-48
-52
-48
-48
-52
-52
-52
-48
-48
-52
-48
-52
-48
-48
-52
-48
-48
-44
-44
-48
-48
-48
-64
-76
-84
-100
-112
-124
-108
-64
-16
32
84
128
176
228
276
324
376
424
476
516
496
440
388
344
296
244
192
144
88
40
-4
-56
-108
-128
-120
-100
-84
-76-64
-52
-44
-48
-52
-48
-44
-48
-48
-48
-48
-52
-52
-48
-48
-48
-52
-52
-52
-52
-52
-44
-44
-48
-48
-44
-44
-48
-48
-44
-44
-40
-40
-36
-36
-40
-40
-36
-32
-32
-32
-28
-28
-24
-24
-24
-24
-24
-16
-16
-16
-20
-16
-8
-8
-4
-4
-4
-4
0
0
0
8
12
12
12
20
24
20
24
36
40
44
52
56
56
60
60
68
76
80
80
76
72
68
68
68
64
64
64
60
56
52
48
40
28
16
8
0
-12
-16
-24
-36
-36
-40
-40
-40
-44
-52
-52
-52
-56
-52
-48
-44
-44
-48
-56
-56
-48
-48
-52
-48
-44
-52
-56
-56
-56
-48
-48
-52
-52
-44
-40
-36
-32
-24
-16
-8
-4
-4
0
0
0
4
8
12
12
16
16
12
8
12
12
12
12
12
4
4
4
0
-4
-4
-4
-8
-16
-20
-28
-36
-40
-48
-48
-48
-48
-52
-52
-52
-52
-52
-48
-48
-48
-44
-44
-48
-52
-52
-44
-48
-52
-52
-52
-48
-52
-52
-48
-48
-52
-48
-52
-48
-44
-48
-52
-52
-48
-48
-48
-44
-48
-48
-48
-60
-72
-84
-96
-112
-124
-112
-64
-12
36
84
136
184
232
276
324
376
424
476
516
500
444
388
340
292
240
188
140
92
36
-8
-60
-108
-128
-120
-100
-88
-80
-64
-52
-48
-48
-52
-52
-52
-52
-52
-52
-52
-48
-52
-52
-48
-48
-48
-52
-52
-52
-52
-52
-48
-44
-48
-48
-44
-48
-48
-44
-40
-40
-40
-40
-40
-40
-36
-32
-32
-36
-36
-28
-28
-24
-20
-24
-24
-20
-16
-16
-16
-12
-12
-12
-8
-4
-4
-4
0
0
0
4
8
8
12
20
16
16
16
24
32
40
44
48
52
56
56
64
68
72
76
76
76
68
68
64
60
56
60
64
60
56
52
52
40
32
16
8
0
-16
-20
-24
-28
-40
-44
-44
-52
-52
-52
-52
-52
-52
-52
-48
-48
-48
-48
-52
-52
-52
-52
-52
-52
-48
-52
-52
-52
-52
-52
-52
-52
-48
-44
-40
-36
-32
-28
-20
-12
-8
-4
0
0
0
0
4
8
12
12
12
4
8
12
12
12
12
12
4
0
0
0
-8
-8
-8
-12
-16
-24
-28
-36
-44
-48
-52
-52
-52
-56
-56
-56
-48
-48
-56
-52
-48
-52
-52
-48
-52
-56
-48
-48
-52
-52
-48
-52
-56
-52
-48
-48
-44
-48
-56
-56
-56
-52
-52
-48
-52
-52
-48
-52
-52
-48
-52
-64
-76
-88
-96
-112
-128
-108
-56
-8
32
84
132
176
228
280
324
372
420
472
512
496
440
388
340
288
240
188
140
92
36
-8
-60
-112
-132
-116
-100
-88
-76-60
-52
-48
-48
-52
-48
-48
-52
-52
-52
-52
-52
-52
-52
-48
-48
-48
-48
-48
-48
-48
-44
-40
-40
-44
-44
-44
-44
-44
-44
-36
-36
-40
-36
-36
-32
-32
-32
-32
-32
-28
-28
-28
-24
-24
-16
-16
-16
-16
-16
-12
-12
-12
-8
-4
-4
-4
-4
0
4
0
4
4
4
12
16
16
16
20
28
32
40
44
48
56
56
60
64
72
76
76
80
76
68
68
68
64
64
64
60
60
56
56
52
40
24
16
8
0
-12
-20
-24
-28
-32
-40
-44
-44
-44
-48
-48
-52
-56
-48
-48
-52
-48
-48
-52
-56
-52
-52
-52
-52
-52
-48
-52
-56
-56
-52
-48
-48
-44
-44
-36
-32
-32
-20
-12
-12
-4
0
4
0
0
4
8
12
8
12
16
12
16
16
8
12
16
12
8
4
0
0
0
-4
-4
-8
-12
-20
-32
-36
-36
-44
-44
-44
-48
-52
-52
-48
-48
-52
-48
-44
-44
-44
-48
-52
-48
-48
-52
-48
-48
-48
-52
-52
-52
-52
-52
-48
-44
-48
-48
-44
-48
-52
-52
-48
-44
-44
-48
-48
-48
-48
-48
-64
-76
-84
-100
-112
-120
-104
-60
-8
40
84
136
184
236
280
324
376
428
480
516
496
444
392
340
292
240
192
140
88
36
-8
-64
-112
-128
-112
-100
-88
-76
-60
-52
-48
-44
-44
-44
-48
-52
-48
-48
-52
-48
-48
-48
-48
-48
-48
-44
-48
-48
-48
-44
-40
-44
-44
-48
-48
-44
-44
-40
-36
-40
-40
-36
-36
-36
-36
-32
-28
-32
-28
-28
-28
-24
-24
-24
-20
-16
-16
-12
-12
-12
-12
-12
-8
-4
0
0
0
0
4
4
8
12
16
20
16
20
24
24
32
40
44
52
56
56
60
64
68
76
76
76
76
72
68
64
60
64
64
60
56
52
52
52
40
32
20
8
0
-12
-24
-28
-32
-32
-36
-44
-44
-44
-48
-48
-52
-52
-48
-48
-48
-48
-48
-48
-48
-48
-48
-52
-48
-48
-48
-52
-52
-52
-48
-48
-48
-48
-44
-40
-32
-24
-24
-20
-8
-4
0
4
4
0
4
8
16
16
16
16
12
12
8
12
12
16
16
12
8
0
0
-4
-4
-4
-12
-16
-20
-28
-32
-40
-44
-44
-48
-48
-48
-48
-48
-48
-48
-48
-52
-48
-48
-48
-52
-52
-48
-48
-48
-48
-48
-44
-48
-52
-52
-52
-52
-48
-48
-48
-48
-44
-44
-48
-44
-44
-48
-48
-48
-48
-48
-52
-60
-72
-84
-96
-108
-128
-108
-56
-4
40
88
136
184
232
284
332
380
424
480
520
496
440
388
340
288
244
192
140
92
44
-8
-60
-112
-128
-112
-92
-80
-72-60
-56
-52
-52
-48
-48
-52
-52
-52
-56
-56
-52
-48
-48
-48
-48
-44
-48
-52
-48
-44
-44
-44
-44
-44
-44
-44
-48
-48
-44
-40
-40
-44
-40
-36
-40
-36
-32
-32
-32
-28
-28
-24
-28
-24
-24
-20
-20
-20
-16
-16
-16
-12
-12
-8
-8
0
0
0
0
0
4
4
8
12
16
16
16
20
24
32
44
44
48
52
56
60
68
72
76
80
76
72
72
72
64
64
68
64
60
60
60
56
48
40
28
20
8
-4
-8
-24
-28
-28
-32
-40
-44
-48
-52
-52
-52
-52
-52
-48
-48
-48
-48
-52
-52
-52
-52
-48
-44
-48
-48
-48
-48
-48
-52
-52
-48
-48
-48
-40
-36
-32
-28
-24
-20
-12
-4
-8
-4
0
0
4
8
8
16
16
16
16
16
12
12
12
12
8
4
4
4
0
0
-4
-4
-12
-16
-24
-28
-32
-40
-44
-44
-48
-48
-48
-48
-48
-48
-52
-48
-48
-48
-52
-52
-52
-52
-48
-48
-48
-48
-48
-44
-48
-56
-52
-48
-48
-48
-44
-48
-52
-52
-48
-44
-48
-48
-48
-48
-48
-48
-48
-48
-56
-72
-84
-96
-116
-124
-100
-56
-8
40
92
140
188
232
280
332
380
424
480
516
496
440
384
336
288
236
188
136
84
36
-12
-64
-108
-124
-112
-96
-84
-72
-64
-56
-48
-48
-52
-48
-48
-52
-48
-52
-48
-52
-52
-48
-48
-48
-44
-48
-52
-48
-52
-48
-44
-44
-48
-48
-48
-48
-48
-44
-40
-40
-40
-44
-40
-40
-40
-36
-32
-32
-32
-32
-28
-24
-28
-24
-20
-16
-16
-16
-12
-12
-8
-8
-4
0
-4
-4
0
0
4
8
8
8
12
16
16
16
24
32
36
40
48
48
52
56
56
64
68
72
80
80
76
72
64
64
60
56
60
64
56
56
56
52
40
28
16
8
0
-12
-24
-28
-28
-36
-44
-52
-52
-48
-48
-48
-48
-48
-48
-48
-48
-48
-48
-48
-52
-52
-52
-52
-48
-52
-52
-52
-52
-52
-52
-48
-48
-44
-44
-40
-32
-24
-24
-16
-12
-4
0
0
0
0
0
4
8
16
12
8
8
8
16
16
12
12
8
8
8
0
0
0
-4
-4
-8
-16
-24
-28
-36
-40
-48
-52
-48
-48
-52
-48
-48
-44
-48
-48
-48
-48
-48
-48
-48
-48
-48
-44
-48
-48
-48
-48
-52
-52
-52
-48
-44
-44
-44
-48
-48
-48
-48
-48
-52
-44
-44
-48
-48
-48
-48
-52
-64
-76
-84
-100
-116
-128
-104
-52
-4
44
96
144
188
232
280
332
384
428
480
516
492
440
388
340
288
240
188
136
88
36
-12
-64
-116
-132
-116
-96
-88
-76-60
-52
-52
-52
-48
-48
-48
-48
-52
-52
-52
-52
-52
-48
-48
-48
-48
-48
-48
-44
-40
-40
-44
-52
-48
-44
-48
-48
-44
-40
-44
-48
-44
-36
-40
-40
-36
-36
-32
-32
-32
-32
-32
-32
-28
-24
-20
-16
-12
-12
-12
-16
-12
-12
-8
-4
0
0
0
0
4
8
12
12
12
16
20
16
20
28
32
40
48
48
52
60
64
64
68
76
80
76
72
68
64
68
60
60
60
60
60
56
52
48
40
32
20
8
0
-12
-20
-32
-32
-32
-36
-44
-48
-44
-48
-52
-52
-48
-48
-48
-48
-48
-52
-48
-52
-52
-52
-52
-48
-48
-48
-48
-52
-52
-48
-48
-48
-48
-48
-40
-32
-28
-24
-16
-8
-4
0
0
0
0
0
4
8
16
16
12
12
12
12
12
12
12
12
8
0
0
0
0
0
-4
-12
-16
-20
-24
-32
-40
-44
-48
-48
-44
-48
-48
-52
-48
-44
-48
-52
-48
-48
-48
-48
-48
-48
-48
-48
-48
-48
-48
-52
-52
-48
-48
-52
-48
-48
-48
-48
-48
-52
-52
-48
-44
-48
-48
-48
-52
-52
-52
-60
-76
-92
-100
-112
-128
-104
-52
-4
40
92
140
188
232
280
332
380
428
484
516
488
436
388
340
288
236
184
136
84
36
-12
-64
-112
-128
-112
-96
-88
-76
-64
-52
-48
-48
-48
-52
-52
-48
-52
-52
-52
-52
-52
-52
-52
-48
-52
-52
-48
-48
-48
-52
-48
-44
-48
-48
-44
-48
-48
-40
-40
-40
-40
-36
-36
-40
-36
-32
-32
-32
-28
-28
-28
-24
-24
-24
-20
-16
-16
-16
-16
-16
-8
-8
-4
-4
0
0
0
0
0
8
4
8
12
8
8
12
20
24
32
36
40
48
52
56
60
64
68
72
76
72
72
72
68
60
64
60
56
60
56
52
52
48
40
28
16
4
-4
-12
-20
-32
-36
-40
-40
-44
-44
-48
-48
-52
-56
-52
-44
-48
-48
-52
-52
-52
-52
-52
-52
-52
-48
-52
-52
-48
-48
-52
-52
-52
-52
-48
-44
-36
-32
-32
-24
-20
-12
0
0
0
0
0
0
8
16
16
12
12
16
12
8
12
12
12
12
8
0
0
0
0
-4
-4
-8
-16
-20
-28
-36
-40
-44
-48
-52
-48
-48
-48
-52
-48
-48
-44
-44
-44
-44
-48
-44
-44
-44
-48
-48
-44
-48
-48
-48
-52
-52
-48
-48
-52
-52
-52
-52
-48
-48
-44
-44
-48
-48
-44
-48
-52
-48
-48
-64
-76
-88
-104
-120
-128
-104
-56
-4
44
92
140
184
232
284
332
380
428
480
512
488
432
384
336
280
232
184
136
84
32
-16
-68
-116
-132
-112
-100
-84
-72-64
-56
-52
-52
-52
-52
-52
-56
-56
-52
-52
-56
-52
-48
-48
-52
-52
-52
-48
-52
-48
-44
-44
-48
-48
-48
-48
-48
-44
-40
-40
-44
-44
-40
-40
-40
-40
-36
-28
-28
-32
-28
-28
-28
-28
-24
-20
-16
-16
-16
-16
-12
-8
-8
-8
-4
-4
0
0
0
0
4
4
8
8
8
8
12
16
24
32
36
40
48
52
52
52
60
68
72
76
80
68
60
64
60
52
56
60
60
52
52
52
48
36
24
12
0
-8
-16
-24
-28
-32
-40
-44
-48
-56
-56
-52
-52
-56
-52
-52
-52
-48
-48
-48
-48
-52
-48
-48
-48
-52
-52
-48
-48
-56
-52
-48
-52
-48
-48
-44
-40
-32
-28
-24
-16
-8
-4
-4
-4
0
4
4
8
12
12
12
16
8
8
12
8
12
12
8
8
0
0
0
-4
-8
-12
-12
-16
-24
-36
-40
-40
-44
-48
-52
-52
-52
-56
-56
-56
-52
-52
-56
-52
-52
-52
-56
-52
-52
-52
-48
-48
-48
-52
-52
-48
-48
-48
-48
-48
-48
-44
-48
-52
-52
-52
-52
-48
-52
-48
-52
-52
-52
-56
-68
-76
-84
-96
-116
-132
-100
-44
0
44
92
140
188
236
284
336
384
432
480
512
492
436
384
336
280
232
188
132
80
32
-16
-68
-116
-128
-108
-96
-88
-76
-60
-56
-56
-52
-52
-48
-48
-52
-56
-56
-56
-56
-52
-48
-52
-56
-56
-52
-52
-52
-52
-52
-48
-52
-52
-52
-48
-48
-44
-44
-44
-44
-40
-44
-44
-36
-36
-36
-36
-32
-32
-36
-36
-32
-28
-24
-20
-20
-16
-20
-20
-16
-16
-16
-12
-8
-4
-4
0
0
0
8
8
12
12
16
16
16
20
28
32
40
44
52
56
60
64
68
72
76
76
76
76
68
64
64
64
56
60
60
56
56
56
48
40
28
20
8
0
-16
-24
-24
-32
-36
-36
-48
-52
-48
-52
-52
-52
-52
-48
-48
-52
-52
-48
-52
-56
-48
-48
-48
-48
-52
-56
-52
-48
-52
-52
-52
-52
-48
-44
-40
-36
-32
-24
-12
-8
-8
-8
-4
-4
0
4
4
8
12
12
8
8
8
12
12
12
8
8
4
0
0
0
0
-4
-8
-12
-16
-20
-28
-36
-40
-44
-48
-48
-52
-52
-48
-48
-52
-52
-52
-48
-44
-48
-52
-56
-52
-48
-48
-52
-52
-56
-52
-52
-56
-60
-52
-48
-48
-52
-56
-56
-52
-48
-48
-48
-48
-52
-52
-52
-52
-52
-56
-64
-72
-88
-100
-112
-128
-104
-48
0
48
96
144
192
240
288
336
384
436
488
520
488
432
384
332
280
232
184
128
76
28
-16
-72
-120
-128
-104
-92
-84
-68-56
-48
-48
-48
-48
-52
-56
-52
-48
-52
-52
-48
-48
-48
-48
-48
-48
-48
-48
-52
-48
-48
-52
-52
-48
-48
-48
-48
-44
-44
-40
-40
-40
-44
-44
-40
-40
-36
-36
-36
-36
-36
-32
-28
-24
-24
-24
-20
-20
-20
-20
-12
-8
-8
-8
-4
0
0
0
-4
0
4
8
12
12
12
12
16
20
28
32
40
44
44
48
56
60
64
68
72
76
76
72
64
64
60
60
60
60
56
52
52
52
48
36
20
12
4
-8
-16
-24
-32
-36
-36
-40
-48
-56
-56
-52
-52
-56
-52
-48
-52
-56
-56
-56
-60
-56
-52
-52
-52
-52
-52
-52
-52
-52
-52
-52
-56
-56
-52
-48
-40
-36
-28
-24
-20
-12
-12
-8
-4
0
0
0
0
8
12
8
8
4
8
8
8
8
8
8
4
0
-4
-4
-8
-4
-4
-12
-24
-28
-32
-40
-44
-48
-48
-52
-52
-48
-52
-56
-52
-48
-52
-52
-52
-52
-56
-56
-56
-52
-52
-52
-52
-56
-56
-56
-52
-52
-48
-52
-56
-52
-52
-56
-52
-48
-52
-56
-48
-44
-48
-48
-52
-52
-56
-64
-76
-92
-104
-120
-132
-104
-48
0
48
96
144
196
240
284
332
384
432
484
516
488
428
380
328
280
232
180
128
76
24
-24
-76
-120
-128
-116
-100
-88
-72
-60
-56
-52
-52
-52
-52
-52
-52
-52
-52
-56
-56
-52
-52
-52
-52
-52
-52
-56
-52
-48
-48
-48
-52
-52
-52
-48
-48
-44
-40
-44
-44
-40
-44
-40
-36
-40
-40
-36
-32
-28
-24
-32
-32
-28
-24
-24
-24
-24
-20
-20
-20
-12
-12
-12
-8
-4
-4
0
0
0
0
4
8
12
8
12
16
20
28
32
36
44
48
48
48
56
64
68
72
80
76
72
68
64
60
60
56
56
56
56
56
56
48
40
28
16
4
-4
-16
-24
-32
-36
-36
-40
-44
-48
-56
-56
-52
-48
-52
-52
-52
-48
-52
-56
-56
-52
-52
-48
-48
-52
-56
-52
-48
-48
-52
-52
-48
-48
-48
-48
-44
-36
-32
-24
-16
-12
-8
-4
-4
0
0
4
8
12
12
12
12
8
8
12
12
8
8
8
4
0
0
0
-4
-4
-8
-16
-20
-24
-32
-36
-40
-52
-52
-48
-52
-56
-52
-60
-56
-48
-52
-52
-48
-52
-56
-56
-52
-52
-48
-48
-48
-44
-52
-52
-48
-52
-52
-48
-52
-56
-56
-56
-52
-52
-52
-48
-52
-56
-56
-52
-52
-52
-56
-64
-80
-88
-100
-120
-132
-100
-44
0
44
96
140
188
240
284
332
384
432
484
512
488
432
380
332
280
236
184
124
76
28
-20
-76
-124
-128
-108
-100
-88
-68-64
-60
-52
-48
-48
-48
-48
-48
-48
-52
-52
-52
-52
-52
-52
-52
-52
-52
-52
-52
-48
-48
-48
-48
-52
-52
-48
-48
-44
-44
-40
-40
-36
-36
-36
-36
-36
-36
-32
-32
-32
-32
-32
-28
-24
-20
-20
-20
-16
-20
-16
-12
-12
-4
-8
-8
-4
-4
0
0
0
0
8
8
8
8
12
16
24
28
32
36
44
48
52
56
64
68
72
76
80
76
72
68
64
60
60
60
60
60
52
52
52
48
40
28
20
4
-4
-12
-24
-32
-36
-40
-44
-44
-52
-48
-48
-52
-56
-52
-52
-48
-52
-52
-48
-48
-52
-52
-48
-48
-48
-48
-52
-56
-52
-52
-52
-52
-52
-48
-44
-40
-32
-28
-20
-12
-8
-4
-4
-4
0
4
4
8
12
8
8
8
8
8
8
8
12
12
8
4
0
0
-4
0
-4
-12
-16
-20
-28
-28
-36
-44
-48
-48
-48
-48
-52
-52
-48
-48
-48
-52
-52
-48
-48
-48
-52
-52
-52
-48
-44
-48
-56
-56
-52
-52
-48
-48
-52
-52
-48
-52
-56
-52
-48
-48
-48
-48
-48
-52
-48
-48
-52
-52
-60
-76
-88
-104
-120
-128
-96
-44
0
48
96
144
192
240
292
344
388
432
488
516
484
432
380
332
284
228
180
132
76
24
-24
-76
-120
-124
-108
-96
-88
-76
-64
-52
-52
-52
-52
-52
-52
-52
-56
-56
-56
-52
-52
-52
-52
-52
-56
-52
-52
-52
-48
-44
-48
-48
-48
-48
-48
-44
-48
-48
-40
-40
-44
-44
-44
-44
-40
-36
-36
-36
-32
-32
-32
-28
-24
-24
-20
-20
-20
-16
-12
-12
-8
-8
-4
-4
-4
0
0
0
0
4
8
8
16
12
8
16
20
24
28
36
44
48
56
56
60
64
68
76
72
68
68
68
64
56
52
56
56
52
52
52
48
44
28
24
16
0
-8
-20
-32
-36
-36
-40
-44
-48
-52
-56
-56
-56
-56
-56
-52
-52
-52
-52
-52
-52
-52
-52
-48
-44
-44
-48
-52
-56
-56
-52
-48
-48
-48
-48
-48
-40
-32
-24
-20
-16
-12
-4
0
-4
0
0
0
8
8
8
8
8
8
8
8
8
12
12
8
0
0
0
0
-4
-8
-8
-12
-20
-28
-36
-36
-40
-52
-52
-52
-48
-48
-52
-56
-52
-52
-48
-48
-48
-48
-52
-52
-52
-48
-48
-48
-48
-44
-48
-52
-52
-48
-48
-48
-48
-48
-48
-48
-48
-48
-48
-48
-48
-48
-52
-52
-52
-52
-56
-64
-80
-96
-104
-116
-124
-96
-44
0
48
96
140
188
236
288
340
388
440
492
516
480
424
376
328
276
228
176
128
80
24
-20
-72
-120
-128
-112
-96
-84
-76-60
-52
-52
-52
-52
-48
-48
-52
-52
-52
-52
-48
-44
-48
-52
-56
-56
-56
-56
-52
-52
-48
-44
-44
-48
-48
-44
-44
-44
-40
-40
-40
-36
-40
-40
-40
-36
-32
-32
-32
-32
-28
-28
-28
-24
-24
-20
-20
-20
-20
-12
-16
-12
-8
-4
-4
-4
0
0
0
4
4
8
12
12
8
12
20
24
24
28
36
44
48
52
56
60
68
72
76
76
72
72
68
64
60
60
60
56
60
60
52
48
44
40
28
16
4
-8
-20
-28
-32
-32
-36
-40
-44
-52
-52
-52
-52
-52
-56
-56
-52
-52
-52
-56
-60
-52
-48
-48
-56
-48
-48
-52
-52
-56
-52
-48
-48
-48
-48
-44
-44
-36
-24
-20
-16
-12
-8
-4
-4
0
4
8
8
12
12
8
8
12
12
8
12
16
16
12
4
4
0
0
-4
0
-8
-16
-20
-28
-32
-36
-44
-52
-48
-48
-52
-52
-52
-48
-48
-48
-48
-48
-52
-52
-52
-52
-44
-48
-48
-48
-52
-52
-52
-52
-52
-48
-48
-52
-52
-52
-52
-52
-52
-52
-52
-52
-48
-44
-48
-52
-52
-48
-52
-64
-76
-88
-100
-120
-128
-96
-44
0
52
104
148
196
248
296
340
388
440
496
516
476
424
380
324
276
228
172
124
72
20
-28
-80
-120
-124
-112
-100
-92
-80
-64
-56
-56
-52
-48
-52
-56
-60
-52
-48
-48
-48
-48
-48
-52
-56
-52
-56
-56
-52
-48
-52
-48
-52
-56
-48
-44
-48
-44
-44
-44
-40
-40
-40
-40
-36
-32
-36
-36
-32
-36
-32
-28
-28
-24
-20
-20
-20
-24
-20
-16
-12
-16
-12
-8
-4
0
0
0
0
4
4
4
4
8
8
12
12
20
32
36
36
44
48
52
60
60
68
72
76
80
76
72
68
60
60
60
64
60
56
56
56
56
44
32
28
16
4
-4
-16
-24
-28
-32
-36
-44
-52
-52
-52
-56
-56
-52
-48
-52
-56
-56
-56
-56
-56
-56
-52
-56
-52
-48
-52
-56
-52
-52
-56
-52
-48
-52
-52
-44
-44
-36
-28
-24
-16
-12
-4
-4
-4
0
4
4
8
12
8
8
8
4
8
16
12
12
12
12
4
0
0
0
0
0
-4
-12
-20
-28
-32
-36
-44
-48
-48
-56
-52
-52
-52
-52
-56
-48
-48
-52
-52
-52
-52
-56
-52
-48
-48
-48
-48
-52
-52
-48
-48
-56
-56
-52
-52
-48
-48
-52
-52
-48
-48
-48
-48
-48
-48
-52
-52
-48
-52
-68
-80
-88
-104
-124
-128
-96
-48
4
52
96
144
192
240
296
344
388
436
488
516
480
428
372
324
272
224
176
124
68
16
-24
-80
-124
-128
-112
-100
-84
-68-56
-52
-56
-52
-52
-52
-52
-52
-48
-48
-52
-48
-48
-52
-52
-52
-52
-52
-52
-48
-48
-48
-44
-48
-52
-48
-48
-44
-40
-40
-40
-36
-40
-40
-36
-36
-36
-32
-36
-36
-36
-32
-28
-24
-24
-24
-20
-16
-20
-20
-16
-12
-12
-8
-8
-4
0
0
0
0
0
4
4
8
4
8
12
12
16
24
32
36
36
40
48
48
56
64
68
72
72
68
64
60
60
60
56
52
56
60
52
48
48
40
32
20
8
0
-12
-24
-28
-36
-32
-36
-44
-44
-52
-56
-60
-56
-56
-52
-52
-52
-48
-52
-52
-52
-52
-52
-52
-48
-52
-56
-60
-56
-56
-52
-48
-52
-56
-52
-44
-40
-36
-28
-20
-20
-16
-8
-8
-8
-4
0
0
0
8
12
8
4
8
8
8
12
12
12
8
0
0
0
0
-4
-8
-12
-16
-20
-28
-36
-40
-44
-48
-48
-52
-52
-56
-56
-52
-52
-52
-52
-52
-56
-52
-52
-56
-56
-52
-52
-52
-52
-52
-52
-56
-56
-52
-48
-52
-52
-56
-56
-52
-52
-48
-48
-52
-48
-48
-52
-48
-48
-48
-52
-64
-80
-92
-100
-116
-124
-88
-36
4
56
104
148
196
244
292
340
392
440
492
516
480
428
376
328
276
224
172
124
68
16
-28
-76
-120
-124
-112
-96
-84
-76
-64
-56
-52
-48
-48
-52
-52
-52
-56
-56
-52
-44
-48
-56
-56
-52
-52
-52
-52
-48
-44
-48
-48
-48
-52
-52
-48
-44
-44
-40
-40
-40
-40
-40
-36
-36
-36
-32
-32
-32
-32
-32
-28
-24
-28
-24
-20
-16
-16
-16
-12
-12
-12
-4
-4
0
-4
-4
0
0
4
8
8
12
12
8
8
16
20
28
36
40
48
52
52
56
60
68
72
76
76
72
72
68
60
60
60
60
60
56
56
52
48
52
40
28
16
0
-8
-20
-28
-28
-32
-36
-44
-48
-52
-56
-56
-52
-56
-52
-52
-52
-52
-52
-56
-52
-52
-52
-48
-48
-48
-52
-48
-52
-52
-48
-48
-52
-48
-48
-48
-44
-36
-28
-16
-12
-12
-8
-8
-4
0
4
4
8
12
12
8
8
12
12
12
16
12
8
4
0
4
4
0
0
0
-8
-16
-20
-28
-36
-40
-40
-44
-48
-52
-52
-52
-48
-48
-48
-48
-48
-48
-52
-56
-52
-48
-52
-48
-48
-52
-48
-48
-52
-56
-52
-44
-44
-48
-52
-48
-52
-52
-52
-52
-52
-48
-48
-48
-52
-56
-52
-48
-52
-64
-80
-92
-108
-128
-128
-92
-36
8
56
100
148
196
248
292
344
396
440
492
512
472
424
380
324
268
220
176
120
68
20
-24
-80
-124
-124
-108
-96
-88
-76-60
-52
-52
-52
-48
-52
-52
-52
-56
-52
-52
-52
-52
-52
-48
-48
-52
-52
-48
-48
-48
-44
-48
-48
-48
-48
-44
-40
-44
-44
-40
-44
-40
-40
-36
-36
-36
-32
-36
-28
-28
-32
-28
-28
-24
-20
-16
-20
-20
-16
-12
-12
-8
-8
-8
-8
-8
-4
0
4
4
4
8
8
12
12
16
20
24
28
36
40
48
48
52
56
60
64
68
76
72
72
72
68
64
64
60
60
60
56
52
48
52
52
40
28
12
0
-4
-16
-28
-32
-32
-40
-44
-48
-52
-56
-52
-48
-52
-52
-52
-48
-48
-48
-48
-48
-52
-52
-52
-52
-56
-52
-48
-52
-52
-48
-48
-52
-52
-52
-44
-40
-32
-28
-20
-12
-12
-8
-4
0
0
0
8
8
12
12
12
8
8
12
12
16
16
12
8
8
4
0
0
-4
-4
-8
-16
-24
-28
-32
-36
-40
-44
-44
-48
-52
-56
-52
-48
-48
-52
-52
-52
-52
-48
-48
-52
-56
-48
-44
-48
-56
-60
-56
-56
-52
-44
-44
-48
-48
-52
-52
-48
-44
-48
-48
-44
-48
-52
-52
-48
-48
-48
-52
-64
-80
-92
-104
-120
-120
-88
-40
4
56
100
152
200
248
296
348
392
440
496
512
472
424
372
324
276
224
172
120
68
20
-28
-80
-120
-124
-108
-96
-84
-72
-56
-52
-48
-48
-48
-52
-52
-52
-52
-52
-48
-48
-48
-52
-56
-52
-52
-52
-48
-48
-48
-44
-48
-48
-48
-48
-44
-40
-40
-40
-40
-36
-40
-40
-36
-32
-32
-36
-36
-28
-28
-32
-24
-20
-24
-24
-20
-20
-24
-20
-16
-12
-8
-4
-4
-4
-4
-4
0
0
4
4
8
8
8
12
12
16
28
32
36
40
44
52
52
56
64
72
76
80
76
72
68
68
72
68
64
60
60
60
52
52
52
44
36
24
12
4
-8
-24
-24
-28
-32
-36
-44
-48
-44
-48
-56
-56
-52
-48
-48
-48
-52
-56
-52
-48
-48
-52
-52
-52
-52
-52
-52
-52
-48
-48
-52
-52
-52
-48
-44
-40
-32
-24
-20
-16
-8
-4
-4
0
0
4
8
8
8
12
8
12
12
8
12
12
12
12
8
4
4
0
0
0
-4
-8
-16
-20
-24
-28
-32
-36
-40
-48
-52
-52
-56
-52
-52
-48
-48
-48
-48
-52
-52
-52
-52
-48
-44
-48
-52
-52
-52
-48
-48
-48
-44
-48
-52
-52
-48
-48
-48
-48
-48
-48
-48
-48
-48
-48
-48
-44
-48
-52
-64
-76
-92
-112
-124
-124
-88
-36
8
56
104
152
200
248
300
348
392
444
496
512
476
420
368
320
268
220
168
116
64
16
-28
-80
-120
-120
-104
-96
-84
-72-60
-56
-48
-48
-48
-48
-52
-52
-52
-56
-52
-48
-48
-52
-52
-52
-52
-52
-48
-52
-52
-48
-52
-52
-48
-44
-44
-48
-44
-40
-40
-44
-40
-40
-36
-36
-36
-32
-32
-32
-28
-32
-28
-24
-24
-24
-20
-16
-16
-16
-12
-12
-8
-8
-4
-4
-8
0
0
0
8
8
8
12
12
16
16
20
24
24
32
40
44
44
52
60
64
68
72
76
76
76
72
64
60
64
64
60
56
56
56
52
48
44
36
24
12
0
-8
-20
-28
-32
-32
-36
-44
-48
-52
-52
-52
-48
-44
-48
-48
-48
-52
-52
-48
-48
-52
-48
-48
-48
-56
-52
-52
-52
-52
-52
-52
-48
-52
-52
-48
-40
-28
-20
-16
-16
-12
-8
-4
0
0
0
4
8
12
16
12
8
8
8
8
12
16
12
12
8
0
0
0
0
-4
-8
-12
-20
-24
-28
-36
-40
-44
-48
-52
-52
-52
-52
-48
-48
-48
-52
-52
-52
-52
-48
-48
-52
-52
-48
-48
-48
-52
-52
-52
-48
-48
-48
-48
-48
-56
-52
-48
-52
-48
-44
-48
-52
-52
-52
-48
-52
-48
-48
-60
-80
-92
-104
-120
-124
-84
-32
8
56
104
152
200
244
292
344
392
444
496
512
472
416
368
320
272
220
168
116
64
12
-32
-84
-124
-120
-104
-96
-84
-72
-60
-52
-48
-52
-48
-52
-52
-52
-52
-52
-52
-52
-48
-48
-52
-52
-48
-48
-52
-48
-48
-48
-48
-44
-44
-40
-44
-44
-40
-36
-40
-48
-44
-40
-36
-36
-36
-32
-32
-32
-32
-32
-32
-24
-24
-20
-20
-20
-16
-12
-12
-12
-12
-8
-8
-4
-8
-8
0
0
8
12
12
8
12
16
16
20
24
32
36
40
44
52
56
56
64
68
76
76
76
76
68
64
64
64
60
64
64
60
56
56
52
48
36
24
12
0
-8
-20
-24
-28
-36
-40
-40
-44
-52
-56
-56
-52
-52
-48
-48
-52
-56
-52
-52
-52
-52
-52
-52
-52
-48
-48
-56
-56
-52
-52
-56
-52
-52
-52
-48
-44
-36
-32
-24
-16
-12
-8
-8
-4
0
0
4
8
8
8
8
8
12
12
8
8
12
12
4
0
0
0
-4
-8
-8
-12
-16
-20
-28
-32
-36
-44
-52
-52
-52
-52
-52
-52
-48
-52
-52
-48
-52
-52
-52
-48
-48
-48
-44
-48
-52
-52
-52
-48
-52
-52
-48
-52
-52
-52
-52
-56
-52
-52
-48
-44
-52
-56
-56
-52
-52
-48
-44
-48
-64
-84
-96
-104
-120
-124
-84
-32
12
56
104
152
200
252
300
348
396
444
496
512
472
420
368
320
268
220
172
116
64
12
-32
-80
-120
-124
-108
-96
-88
-72-56
-52
-52
-48
-52
-52
-52
-52
-52
-52
-48
-48
-48
-52
-52
-52
-52
-52
-48
-48
-48
-44
-44
-48
-48
-44
-48
-48
-44
-40
-40
-40
-40
-40
-36
-36
-36
-32
-36
-40
-36
-32
-28
-24
-20
-16
-20
-24
-20
-20
-16
-12
-8
-8
-8
-4
-4
-4
0
0
4
8
8
12
8
8
12
20
24
28
32
40
48
48
52
56
64
68
76
80
76
72
68
68
68
64
60
60
56
52
52
52
56
48
36
24
12
0
-12
-16
-24
-28
-28
-32
-44
-48
-48
-48
-52
-52
-52
-48
-48
-48
-52
-52
-48
-48
-44
-44
-44
-48
-52
-52
-52
-52
-52
-52
-48
-48
-52
-48
-40
-36
-32
-28
-16
-12
-12
-8
0
0
0
8
16
12
12
12
8
8
8
12
12
12
8
8
8
4
0
0
0
-4
-8
-8
-12
-20
-28
-32
-36
-44
-48
-52
-52
-52
-52
-52
-48
-48
-52
-52
-52
-48
-48
-52
-48
-48
-44
-48
-48
-48
-48
-48
-48
-44
-44
-48
-48
-48
-52
-52
-48
-48
-48
-48
-52
-56
-52
-48
-48
-44
-48
-56
-68
-80
-96
-108
-120
-120
-84
-32
12
56
104
156
204
252
300
352
400
444
496
516
472
420
368
316
268
216
168
116
64
16
-28
-84
-124
-120
-104
-96
-84
-72
-56
-52
-52
-48
-48
-52
-56
-52
-52
-52
-48
-52
-48
-48
-52
-52
-52
-56
-52
-52
-52
-48
-48
-48
-48
-48
-48
-44
-44
-44
-44
-44
-40
-40
-36
-40
-36
-36
-36
-36
-32
-32
-32
-28
-24
-24
-24
-20
-24
-24
-20
-12
-8
-8
-12
-4
-4
-4
0
0
8
8
8
12
12
12
8
12
24
36
40
36
44
52
56
60
64
68
72
76
76
72
72
68
64
64
68
60
56
60
56
52
52
44
36
24
12
0
-12
-20
-28
-28
-32
-40
-48
-48
-48
-52
-56
-52
-48
-52
-52
-48
-52
-56
-52
-48
-48
-48
-44
-48
-52
-52
-52
-52
-48
-48
-52
-48
-48
-52
-44
-36
-28
-28
-24
-12
-4
0
-4
0
0
0
4
8
8
8
12
8
8
12
12
8
12
12
4
4
0
0
0
-4
-4
-8
-16
-16
-20
-28
-36
-40
-44
-52
-52
-52
-52
-52
-48
-48
-52
-52
-48
-52
-56
-52
-52
-52
-52
-52
-52
-52
-48
-48
-52
-48
-48
-44
-48
-56
-56
-48
-48
-48
-48
-48
-52
-52
-52
-48
-48
-48
-52
-56
-72
-88
-96
-108
-124
-124
-84
-32
8
60
108
156
204
252
304
352
400
444
492
508
468
416
368
320
268
216
164
116
60
8
-32
-84
-124
-116
-104
-96
-84
-72-60
-52
-52
-52
-52
-52
-52
-52
-56
-56
-52
-48
-48
-52
-52
-48
-48
-52
-52
-52
-52
-48
-48
-52
-52
-48
-44
-44
-44
-44
-44
-40
-44
-40
-36
-36
-36
-36
-40
-36
-32
-28
-32
-28
-28
-24
-20
-24
-20
-16
-16
-12
-12
-8
0
-4
-8
-4
0
4
4
8
8
8
8
12
16
20
24
24
32
40
40
48
56
56
60
64
72
72
72
72
64
64
68
64
60
56
56
56
52
52
56
44
32
24
12
0
-16
-24
-24
-28
-36
-40
-48
-56
-56
-56
-56
-56
-52
-44
-48
-52
-52
-52
-52
-52
-52
-52
-52
-52
-56
-56
-56
-56
-48
-44
-52
-52
-48
-44
-44
-40
-36
-28
-20
-16
-8
-8
-8
0
0
0
4
8
8
8
12
12
8
8
8
8
8
8
8
4
4
0
0
-4
-8
-12
-16
-20
-28
-32
-36
-44
-48
-52
-52
-52
-56
-52
-52
-52
-52
-56
-56
-56
-56
-52
-52
-52
-48
-52
-48
-48
-52
-52
-48
-48
-48
-52
-52
-48
-48
-48
-48
-44
-48
-44
-48
-52
-56
-52
-48
-44
-44
-52
-68
-80
-92
-108
-124
-120
-84
-36
12
60
108
156
204
256
304
352
396
448
500
516
468
416
364
316
268
216
160
108
56
8
-36
-84
-124
-128
-112
-96
-88
-76
-60
-52
-52
-52
-56
-56
-56
-56
-56
-52
-48
-52
-52
-48
-52
-52
-52
-52
-52
-52
-48
-48
-48
-52
-48
-48
-48
-48
-44
-44
-44
-44
-48
-44
-36
-36
-32
-32
-32
-36
-36
-28
-28
-28
-24
-24
-20
-20
-20
-16
-16
-12
-12
-8
-8
-8
-8
0
0
0
4
4
8
8
4
8
16
16
24
28
36
40
44
48
52
60
64
64
72
76
76
72
68
64
64
64
60
56
52
52
52
56
56
48
32
16
8
0
-12
-24
-28
-28
-32
-40
-48
-52
-52
-48
-52
-56
-56
-52
-52
-52
-56
-52
-52
-52
-48
-52
-56
-52
-52
-52
-52
-48
-52
-52
-52
-52
-56
-52
-44
-40
-36
-28
-24
-16
-12
-12
-8
-4
0
0
0
4
8
8
8
8
8
8
12
12
12
8
4
4
4
0
0
-4
-8
-12
-16
-24
-28
-32
-36
-44
-52
-52
-52
-48
-52
-52
-48
-48
-48
-52
-52
-52
-52
-52
-52
-48
-48
-52
-56
-52
-48
-52
-52
-52
-52
-48
-48
-52
-52
-52
-48
-48
-52
-48
-48
-56
-52
-52
-48
-44
-48
-52
-64
-84
-96
-104
-120
-124
-84
-32
12
60
108
156
204
256
308
352
396
448
500
508
472
416
364
316
264
212
160
112
60
8
-36
-88
-124
-120
-108
-100
-88
-72-60
-52
-52
-52
-52
-52
-52
-48
-52
-52
-52
-48
-52
-52
-52
-56
-48
-48
-48
-48
-48
-48
-52
-48
-48
-48
-48
-48
-48
-44
-40
-44
-44
-40
-36
-36
-32
-36
-36
-32
-36
-32
-28
-24
-28
-24
-20
-20
-20
-20
-16
-12
-8
-8
-8
-8
-4
0
0
4
4
4
8
12
8
8
16
20
28
32
36
36
44
48
52
56
64
68
68
72
76
72
68
64
64
60
60
60
56
52
56
56
52
44
32
20
8
0
-12
-24
-28
-28
-32
-40
-48
-52
-56
-56
-52
-48
-48
-48
-52
-52
-56
-56
-56
-52
-52
-48
-48
-52
-52
-52
-52
-52
-52
-52
-52
-52
-56
-56
-48
-36
-28
-20
-16
-16
-12
-4
0
0
0
0
0
4
8
12
16
12
12
12
12
12
12
12
8
4
0
0
0
0
-8
-16
-16
-20
-24
-32
-40
-40
-48
-52
-52
-52
-48
-52
-52
-48
-48
-48
-56
-52
-48
-52
-52
-52
-52
-48
-48
-52
-52
-52
-52
-48
-44
-44
-48
-48
-48
-48
-48
-48
-52
-52
-52
-52
-52
-48
-48
-48
-48
-56
-68
-76
-92
-108
-124
-116
-76
-32
16
68
116
160
208
256
308
356
400
452
504
512
468
416
368
316
264
212
156
108
60
12
-36
-88
-124
-124
-108
-96
-80
-72
-56
-48
-48
-52
-56
-52
-52
-52
-52
-52
-52
-48
-52
-56
-52
-56
-52
-48
-48
-48
-52
-48
-48
-48
-48
-48
-48
-44
-44
-44
-44
-44
-40
-40
-36
-32
-32
-32
-32
-36
-36
-32
-28
-28
-24
-20
-16
-16
-16
-16
-16
-12
-8
-8
-8
0
0
0
0
0
8
8
8
8
8
16
20
20
20
28
36
44
44
48
56
60
64
72
72
76
80
72
64
68
64
64
64
64
56
52
56
56
48
44
36
24
12
0
-12
-20
-24
-28
-32
-40
-48
-48
-52
-56
-52
-48
-48
-52
-48
-48
-52
-56
-52
-48
-52
-52
-52
-52
-52
-52
-52
-52
-48
-48
-48
-48
-52
-48
-40
-36
-32
-24
-16
-12
-8
-4
-4
0
4
8
4
8
8
8
12
12
12
16
12
8
12
12
8
4
4
0
4
0
-4
-8
-16
-24
-28
-32
-36
-44
-48
-48
-48
-52
-52
-48
-48
-48
-48
-52
-52
-52
-52
-48
-48
-52
-48
-48
-52
-52
-48
-48
-48
-44
-44
-48
-48
-52
-48
-48
-48
-48
-48
-52
-56
-52
-52
-52
-52
-48
-48
-56
-72
-84
-96
-108
-120
-116
-76
-28
12
60
108
156
208
256
308
356
400
452
500
504
464
416
364
316
260
208
156
108
60
8
-40
-92
-128
-124
-108
-96
-84
-68-52
-52
-48
-52
-52
-52
-56
-56
-52
-52
-52
-56
-52
-48
-52
-56
-52
-48
-44
-48
-52
-48
-48
-48
-48
-48
-48
-44
-40
-44
-44
-44
-44
-44
-44
-40
-36
-40
-44
-36
-36
-32
-28
-28
-28
-28
-28
-24
-20
-16
-16
-16
-12
-8
-8
-12
-8
0
0
4
8
4
8
8
8
12
20
20
20
28
36
40
40
48
52
60
64
68
72
76
76
72
68
68
68
64
60
60
56
56
52
48
52
48
32
20
4
-4
-16
-20
-24
-32
-32
-40
-44
-48
-56
-56
-52
-52
-48
-52
-52
-56
-56
-52
-48
-48
-48
-52
-52
-48
-52
-48
-52
-56
-52
-52
-52
-52
-52
-52
-44
-32
-28
-24
-16
-12
-12
-4
0
0
0
4
4
8
4
4
8
12
12
12
12
12
12
8
4
0
0
0
0
-4
-8
-12
-16
-20
-28
-28
-36
-40
-52
-56
-52
-52
-52
-48
-48
-52
-48
-48
-52
-52
-56
-52
-48
-48
-48
-52
-48
-48
-48
-48
-48
-52
-48
-48
-52
-52
-52
-52
-48
-44
-44
-44
-48
-48
-48
-44
-48
-52
-52
-56
-68
-84
-96
-112
-128
-120
-76
-28
20
64
108
156
204
256
308
360
404
452
504
508
460
408
364
316
260
208
156
104
56
4
-44
-92
-128
-124
-108
-96
-84
-72
-56
-48
-52
-52
-52
-52
-52
-52
-52
-48
-44
-48
-52
-52
-52
-52
-48
-48
-48
-48
-52
-52
-48
-48
-48
-44
-40
-40
-44
-44
-40
-44
-44
-40
-36
-32
-36
-36
-36
-36
-36
-32
-24
-24
-24
-24
-24
-20
-20
-20
-16
-12
-8
-8
-8
-4
-4
0
0
4
8
4
4
8
12
12
20
20
24
32
36
36
40
44
52
56
60
64
68
76
76
76
72
64
60
60
60
56
56
52
48
52
52
48
32
20
12
0
-8
-16
-20
-24
-32
-40
-44
-52
-56
-52
-52
-52
-52
-48
-52
-52
-52
-52
-52
-48
-44
-48
-48
-48
-48
-48
-52
-52
-48
-48
-52
-52
-52
-48
-44
-40
-32
-20
-16
-12
-8
-8
-4
0
0
4
8
8
8
8
8
8
12
12
12
16
12
8
4
8
8
0
0
0
-4
-8
-12
-16
-24
-32
-36
-40
-48
-52
-52
-52
-48
-48
-48
-52
-48
-48
-48
-48
-52
-48
-44
-48
-52
-48
-52
-52
-48
-48
-48
-48
-48
-52
-48
-52
-52
-52
-44
-44
-48
-48
-48
-52
-52
-48
-48
-48
-44
-52
-68
-80
-92
-104
-124
-120
-72
-24
20
64
112
160
212
264
316
364
408
456
504
512
460
412
368
312
260
208
156
108
60
8
-36
-88
-120
-116
-104
-92
-84
-64-48
-48
-48
-48
-52
-56
-52
-44
-48
-52
-48
-52
-52
-48
-48
-52
-48
-52
-52
-48
-48
-48
-44
-48
-48
-44
-44
-44
-44
-40
-40
-40
-40
-36
-32
-32
-36
-36
-36
-32
-28
-28
-28
-28
-20
-16
-16
-16
-16
-12
-12
-12
-8
-4
-8
-8
0
0
0
0
0
4
4
8
12
12
16
24
28
28
32
40
44
48
52
60
68
72
72
72
76
72
72
72
68
68
64
60
56
56
56
56
60
52
36
20
8
0
-8
-16
-24
-24
-28
-36
-44
-48
-52
-52
-48
-44
-48
-52
-52
-52
-52
-52
-52
-48
-48
-56
-52
-48
-48
-52
-52
-48
-52
-52
-52
-48
-48
-48
-40
-32
-28
-28
-24
-16
-12
-8
0
0
0
0
0
0
8
8
8
12
12
8
12
12
12
8
4
4
0
0
0
-4
-8
-12
-12
-24
-28
-28
-36
-48
-52
-56
-52
-48
-48
-52
-48
-48
-48
-48
-52
-52
-48
-48
-48
-48
-52
-48
-52
-48
-48
-48
-48
-52
-48
-48
-52
-52
-48
-52
-48
-44
-48
-48
-48
-48
-48
-48
-44
-44
-44
-56
-72
-84
-96
-104
-120
-116
-72
-24
16
68
120
164
212
264
312
360
404
456
504
508
460
408
360
312
260
204
156
104
52
4
-40
-92
-128
-120
-104
-96
-84
-68
-56
-52
-48
-52
-52
-56
-52
-48
-48
-48
-48
-52
-52
-52
-52
-52
-52
-48
-44
-44
-52
-52
-52
-48
-48
-44
-44
-44
-40
-40
-40
-36
-40
-36
-36
-36
-36
-32
-32
-32
-32
-28
-24
-24
-24
-24
-24
-24
-16
-16
-16
-8
-8
-8
-8
-8
-8
0
0
0
4
4
4
8
8
12
20
24
24
28
32
40
44
52
52
60
64
68
72
72
72
72
68
64
60
60
64
60
52
52
52
52
52
44
28
16
4
-4
-16
-24
-28
-28
-36
-44
-48
-52
-52
-52
-52
-52
-52
-52
-56
-52
-52
-52
-52
-52
-48
-52
-52
-52
-52
-56
-52
-48
-48
-48
-48
-52
-56
-48
-44
-36
-28
-20
-16
-12
-8
-4
-4
-4
0
0
4
4
8
12
12
16
16
12
12
12
12
12
8
4
4
0
0
0
-4
-8
-16
-20
-28
-32
-36
-40
-48
-52
-52
-48
-48
-48
-48
-52
-48
-48
-52
-52
-48
-44
-48
-48
-48
-48
-52
-56
-52
-52
-48
-48
-52
-48
-48
-52
-52
-52
-48
-48
-48
-48
-48
-52
-52
-52
-48
-44
-48
-56
-72
-92
-100
-112
-128
-120
-76
-24
20
68
112
164
212
260
312
356
404
456
500
504
460
408
360
308
252
208
160
108
56
4
-40
-96
-132
-128
-108
-96
-80
-68-60
-52
-52
-56
-56
-52
-56
-56
-52
-52
-52
-52
-56
-56
-52
-52
-52
-48
-48
-48
-52
-48
-44
-44
-44
-48
-48
-44
-44
-40
-44
-40
-36
-36
-36
-36
-36
-32
-32
-32
-32
-32
-28
-28
-24
-24
-24
-20
-16
-16
-12
-12
-12
-8
-8
-8
-4
-4
0
0
4
8
8
8
12
12
12
16
28
32
36
36
44
48
56
60
64
68
72
72
72
72
68
68
68
64
60
56
56
56
52
52
52
44
36
20
8
0
-8
-20
-28
-28
-32
-36
-44
-56
-52
-52
-52
-52
-52
-52
-48
-52
-48
-48
-52
-52
-48
-48
-52
-48
-48
-48
-48
-48
-48
-48
-52
-52
-52
-48
-40
-32
-28
-24
-24
-20
-8
-4
-4
0
0
4
8
8
8
8
8
12
12
16
8
4
8
4
4
4
4
0
-4
-4
-4
-12
-20
-20
-24
-32
-40
-44
-48
-48
-48
-48
-52
-52
-48
-52
-52
-52
-56
-56
-52
-52
-48
-48
-48
-48
-48
-48
-48
-48
-48
-48
-48
-52
-52
-52
-48
-52
-52
-48
-48
-52
-56
-56
-52
-52
-52
-52
-52
-60
-76
-88
-100
-112
-128
-120
-72
-24
16
68
120
168
216
264
312
360
408
460
508
508
456
404
356
308
260
204
152
104
56
4
-44
-96
-128
-124
-104
-92
-80
-68
-52
-48
-48
-48
-52
-56
-52
-48
-48
-48
-52
-56
-56
-52
-48
-52
-48
-48
-52
-48
-48
-48
-52
-48
-44
-44
-44
-44
-44
-44
-44
-40
-40
-36
-36
-36
-36
-32
-36
-36
-28
-28
-24
-24
-24
-24
-20
-20
-20
-16
-12
-8
-12
-12
-8
-4
0
0
0
4
0
4
8
8
8
12
16
16
24
32
36
40
44
48
56
60
64
68
72
68
72
72
68
64
60
60
56
52
48
48
48
48
48
44
32
24
8
0
-12
-24
-28
-32
-32
-40
-48
-52
-56
-56
-52
-48
-48
-52
-48
-52
-52
-52
-48
-48
-48
-52
-56
-56
-52
-52
-48
-48
-52
-52
-52
-56
-56
-52
-44
-40
-32
-28
-24
-12
-8
-4
-4
0
0
4
4
8
12
8
12
12
16
8
8
8
8
4
4
0
0
0
0
-4
-4
-8
-20
-24
-24
-32
-36
-48
-52
-52
-48
-52
-52
-48
-48
-52
-48
-52
-52
-52
-52
-52
-52
-52
-52
-52
-56
-56
-48
-48
-52
-48
-48
-52
-56
-56
-52
-48
-48
-48
-48
-48
-48
-48
-52
-52
-48
-48
-52
-60
-76
-88
-96
-112
-128
-116
-72
-20
20
68
116
164
216
264
316
360
408
460
504
504
456
404
352
300
252
200
152
104
52
0
-44
-96
-128
-120
-108
-96
-84
-68