-264
-300
-268
-220
-184
-148
-108
-72
-64
-68
-68
-68
-72
-68
-64
-68
-68
-64
-68
-68
-64
-60
-64
-64
-60
-64
-64
-64
-60
-64
-64
-60
-60
-60
-60
-52
-52
-52
-48
-48
-44
-44
-44
-44
-44
-44
-36
-32
-28
-24
-28
-28
-20
-20
-24
-16
-16
-16
-12
-4
-4
0
0
8
12
8
12
16
20
24
24
28
28
28
40
48
52
60
68
76
84
88
96
104
108
116
116
120
116
108
112
108
96
92
96
96
92
92
88
88
76
60
40
20
4
-8
-20
-28
-32
-44
-52
-60
-68
-68
-64
-60
-60
-64
-68
-68
-64
-68
-68
-64
-68
-72
-72
-68
-68
-64
-60
-64
-64
-68
-68
-68
-68
-68
-60
-48
-40
-36
-28
-20
-12
-4
0
4
8
12
16
20
24
32
32
28
32
32
32
32
32
28
24
20
16
12
8
4
0
0
-8
-16
-24
-36
-40
-48
-60
-68
-72
-72
-68
-64
-68
-68
-64
-68
-68
-64
-60
-60
-64
-64
-64
-64
-68
-64
-64
-60
-64
-64
-64
-64
-68
-68
-64
-64
-68
-64
-68
-68
-68
-64
-60
-60
-64
-64
-60
-64
-92
-124
-152
-184
-216
-252
-240
-168
-92
-16
56
136
208
280
360
436
512
584
668
736
724
640
552
476
392
312
228
140
60
-16
-96
-176
-264
-300
-268
-224
-188
-152
-108
-76
-64
-68
-72
-68
-68
-72
-68
-72
-72
-64
-64
-68
-64
-64
-64
-64
-64
-64
-64
-64
-64
-64
-60
-60
-56
-56
-52
-52
-56
-52
-48
-48
-48
-44
-44
-40
-40
-44
-40
-32
-32
-36
-32
-32
-28
-20
-20
-20
-12
-8
-8
-4
-8
-8
0
0
4
8
12
16
16
16
20
28
36
36
40
48
56
64
72
80
84
88
96
104
108
116
120
120
116
112
108
108
100
96
96
96
92
92
88
88
76
56
36
20
0
-16
-20
-24
-36
-48
-52
-56
-64
-64
-64
-64
-64
-64
-68
-68
-64
-64
-68
-68
-64
-64
-68
-64
-64
-68
-64
-64
-68
-64
-64
-64
-64
-60
-52
-48
-40
-36
-28
-20
-8
-4
0
4
8
12
20
20
24
28
32
32
28
28
28
28
28
28
28
24
16
12
8
4
0
0
-8
-16
-20
-32
-40
-44
-56
-60
-64
-68
-64
-64
-64
-64
-64
-64
-68
-68
-60
-60
-60
-60
-60
-68
-68
-64
-64
-64
-64
-64
-64
-68
-72
-68
-60
-64
-68
-64
-60
-64
-64
-60
-64
-64
-60
-64
-60
-64
-88
-124
-152
-180
-212
-252
-240
-164
-88
-12
56
136
212
288
368
444
516
588
668
740
728
644
556
472
388
308
228
144
64
-16
-100
-176-256
-292
-260
-220
-184
-144
-104
-76
-68
-68
-64
-64
-68
-68
-64
-64
-64
-68
-64
-60
-60
-68
-68
-64
-60
-64
-64
-64
-60
-60
-56
-56
-56
-52
-56
-56
-56
-52
-48
-48
-44
-44
-44
-40
-40
-40
-36
-32
-32
-36
-32
-24
-24
-20
-16
-20
-12
-8
-8
-8
-4
0
4
4
0
4
12
16
16
20
24
24
28
36
44
44
52
68
72
76
88
96
100
104
108
112
120
120
116
112
108
100
100
96
96
88
88
92
88
84
72
52
36
24
4
-12
-20
-28
-36
-44
-52
-60
-68
-68
-64
-64
-68
-68
-68
-68
-68
-64
-64
-64
-64
-68
-64
-64
-68
-68
-64
-68
-68
-68
-68
-64
-68
-68
-56
-48
-40
-32
-24
-20
-12
0
0
0
8
12
16
20
20
28
28
28
32
32
28
28
32
32
28
24
16
12
8
4
0
0
-8
-20
-24
-32
-40
-48
-60
-64
-68
-68
-64
-64
-64
-60
-60
-64
-68
-64
-64
-60
-60
-64
-64
-64
-64
-64
-64
-68
-64
-64
-64
-64
-68
-68
-64
-64
-68
-68
-68
-68
-68
-64
-64
-64
-60
-64
-64
-68
-92
-128
-160
-188
-220
-252
-240
-164
-84
-12
60
136
212
288
360
436
512
588
664
732
716
632
552
472
388
300
220
140
60
-16
-96
-180
-268
-304
-264
-224
-184
-144
-108
-76
-64
-68
-64
-64
-68
-68
-68
-64
-64
-68
-68
-68
-68
-64
-64
-64
-60
-60
-64
-68
-64
-60
-56
-56
-60
-52
-56
-60
-56
-52
-52
-52
-48
-44
-40
-40
-40
-40
-40
-36
-32
-32
-32
-32
-24
-24
-24
-20
-16
-12
-12
-12
-8
-4
0
4
8
12
16
16
20
20
20
28
36
36
40
48
56
60
68
76
80
92
100
100
108
116
116
120
112
108
108
104
100
92
88
88
88
92
88
80
72
52
36
20
4
-12
-24
-28
-32
-44
-56
-60
-68
-72
-68
-64
-64
-64
-64
-64
-68
-68
-68
-68
-68
-64
-64
-64
-64
-64
-68
-68
-64
-68
-68
-64
-68
-68
-60
-52
-48
-36
-24
-16
-8
-4
0
8
8
8
12
20
24
24
28
28
28
32
28
28
28
28
24
24
20
12
8
4
0
0
-8
-20
-28
-32
-36
-52
-60
-68
-68
-64
-64
-64
-64
-64
-64
-64
-64
-64
-64
-64
-64
-60
-64
-64
-60
-64
-68
-60
-64
-68
-60
-64
-64
-68
-68
-64
-64
-68
-64
-64
-64
-64
-64
-64
-64
-64
-64
-72
-92
-124
-156
-184
-220
-256
-236
-160
-84
-8
60
132
216
292
364
444
516
588
668
740
720
632
552
468
384
304
220
140
56
-20
-100
-184-268
-296
-264
-224
-184
-148
-104
-72
-64
-64
-64
-68
-72
-68
-68
-68
-64
-68
-64
-64
-68
-68
-64
-68
-64
-64
-64
-64
-60
-60
-56
-56
-56
-56
-56
-56
-52
-52
-52
-52
-48
-48
-48
-44
-40
-40
-40
-36
-28
-28
-32
-24
-20
-24
-20
-12
-12
-12
-12
-8
-4
0
0
4
8
8
12
16
16
20
28
32
36
32
40
52
60
64
68
76
88
92
100
104
108
116
120
120
116
108
104
104
100
100
96
92
92
92
92
88
68
56
36
16
0
-12
-28
-32
-36
-44
-52
-60
-68
-72
-64
-64
-64
-68
-68
-72
-68
-64
-68
-68
-64
-64
-68
-68
-64
-68
-68
-68
-68
-64
-68
-68
-68
-64
-60
-52
-40
-32
-20
-16
-12
-4
0
4
8
12
16
20
24
28
32
32
28
28
28
28
32
28
24
24
20
16
8
0
0
0
-8
-16
-24
-32
-44
-48
-56
-64
-68
-64
-60
-60
-60
-64
-64
-64
-68
-64
-64
-68
-68
-68
-64
-64
-68
-68
-64
-64
-64
-68
-68
-64
-64
-68
-64
-64
-68
-68
-68
-68
-68
-72
-72
-68
-64
-64
-64
-68
-92
-128
-156
-184
-220
-256
-236
-160
-84
-8
60
136
216
292
368
444
520
596
676
736
716
632
548
472
388
304
224
136
52
-24
-100
-180
-268
-296
-256
-220
-184
-148
-108
-72
-64
-68
-68
-72
-72
-68
-68
-64
-64
-68
-68
-68
-68
-68
-64
-64
-60
-60
-64
-64
-64
-64
-64
-64
-64
-60
-60
-56
-56
-60
-56
-48
-44
-40
-44
-44
-40
-40
-40
-40
-36
-32
-28
-28
-28
-24
-20
-16
-16
-8
-4
-8
-8
0
4
4
4
12
12
12
16
20
24
32
32
36
40
48
56
68
72
76
88
92
100
104
112
116
116
116
116
108
108
104
100
96
92
88
88
88
88
80
68
48
32
16
0
-16
-28
-32
-40
-48
-52
-60
-68
-68
-64
-64
-68
-72
-72
-68
-72
-72
-68
-68
-68
-68
-68
-68
-64
-68
-68
-68
-68
-68
-64
-64
-68
-68
-60
-56
-44
-32
-24
-20
-12
0
0
4
12
12
16
20
28
28
28
28
28
28
28
28
24
24
24
20
16
16
12
4
0
-4
-12
-20
-24
-32
-44
-48
-52
-64
-68
-64
-68
-68
-68
-60
-68
-68
-64
-64
-64
-64
-64
-64
-60
-64
-64
-68
-64
-64
-60
-56
-60
-64
-64
-64
-64
-64
-60
-64
-64
-64
-60
-64
-60
-60
-60
-60
-56
-64
-88
-124
-156
-184
-216
-252
-232
-152
-76
-8
64
140
216
296
368
444
520
596
680
740
712
628
548
468
384
300
216
132
52
-24
-100
-188-272
-296
-260
-220
-184
-144
-108
-76
-64
-68
-68
-68
-68
-68
-68
-68
-68
-64
-64
-68
-68
-68
-64
-64
-64
-64
-64
-64
-64
-60
-60
-56
-56
-56
-56
-56
-52
-52
-52
-44
-48
-44
-44
-44
-40
-40
-36
-36
-32
-28
-28
-24
-24
-24
-16
-16
-12
-8
-8
-8
-4
0
0
0
8
12
16
16
16
20
24
28
32
36
40
48
56
64
72
80
88
92
104
108
108
116
120
124
120
112
112
108
100
96
92
92
92
96
92
84
72
56
36
20
0
-12
-24
-32
-40
-48
-52
-60
-68
-68
-64
-64
-64
-68
-68
-68
-64
-64
-64
-64
-60
-60
-64
-68
-68
-72
-68
-64
-68
-60
-64
-68
-68
-60
-52
-48
-40
-32
-24
-16
-8
-4
0
4
4
8
20
24
24
28
28
32
32
28
28
32
32
32
28
24
20
16
12
8
4
0
-8
-16
-24
-32
-40
-48
-60
-64
-64
-64
-64
-64
-64
-64
-60
-56
-64
-68
-64
-64
-64
-68
-64
-68
-68
-64
-64
-64
-64
-64
-64
-60
-60
-60
-60
-64
-60
-60
-64
-64
-60
-60
-60
-64
-64
-64
-60
-64
-92
-128
-164
-192
-220
-256
-236
-156
-80
-4
68
144
220
296
372
448
520
592
676
740
712
624
544
468
380
300
216
128
52
-24
-104
-184
-272
-300
-260
-216
-180
-140
-104
-72
-64
-68
-68
-68
-68
-64
-64
-64
-64
-64
-64
-64
-64
-68
-68
-64
-64
-64
-64
-64
-64
-64
-60
-60
-56
-56
-56
-56
-52
-52
-48
-48
-48
-48
-40
-40
-44
-44
-40
-40
-36
-32
-28
-28
-28
-24
-20
-20
-20
-16
-8
-4
-4
0
0
0
4
12
12
12
20
24
24
28
32
40
44
48
56
60
72
84
88
92
96
104
116
116
120
120
116
116
108
100
96
96
96
92
92
96
92
84
72
52
32
16
0
-12
-24
-28
-36
-44
-56
-64
-68
-64
-64
-68
-68
-68
-72
-68
-68
-68
-68
-64
-64
-68
-68
-68
-64
-68
-68
-64
-64
-68
-68
-68
-68
-68
-60
-48
-44
-36
-28
-20
-12
-4
0
4
12
16
20
20
20
24
28
28
28
28
28
28
24
24
24
24
16
16
8
0
0
0
-8
-16
-28
-32
-40
-52
-56
-64
-72
-68
-68
-68
-68
-64
-68
-64
-64
-64
-60
-64
-64
-64
-64
-64
-64
-64
-64
-64
-64
-64
-64
-64
-64
-68
-64
-64
-64
-60
-64
-72
-68
-68
-64
-64
-64
-64
-60
-68
-92
-124
-160
-192
-224
-252
-228
-152
-76
-4
68
144
220
300
372
448
524
600
680
740
712
628
544
456
376
296
212
128
44
-28
-104
-188-276
-300
-260
-216
-180
-144
-104
-72
-60
-64
-68
-68
-64
-64
-68
-64
-64
-68
-68
-68
-68
-64
-60
-64
-64
-64
-60
-60
-64
-60
-60
-56
-56
-56
-56
-52
-56
-56
-52
-48
-48
-48
-44
-40
-44
-48
-40
-36
-32
-28
-32
-28
-20
-20
-20
-16
-8
-8
-12
-12
-8
-4
0
0
8
8
12
16
16
20
24
28
28
32
44
52
56
60
68
80
84
92
100
108
108
112
120
116
112
112
108
104
100
96
96
92
88
88
92
84
68
48
32
20
0
-16
-24
-28
-40
-48
-56
-64
-68
-68
-68
-64
-64
-60
-64
-68
-68
-64
-60
-64
-64
-64
-64
-64
-64
-64
-60
-60
-60
-64
-68
-68
-68
-68
-60
-48
-36
-32
-24
-16
-8
0
4
4
8
16
20
20
24
24
28
36
36
32
32
32
32
28
24
24
20
16
12
8
4
0
-8
-16
-20
-28
-36
-44
-56
-68
-64
-64
-64
-60
-60
-64
-64
-64
-64
-64
-64
-60
-56
-60
-64
-60
-60
-64
-68
-68
-68
-68
-60
-60
-64
-68
-68
-60
-56
-64
-64
-64
-68
-64
-68
-68
-64
-68
-60
-64
-92
-128
-160
-188
-224
-256
-228
-152
-72
0
68
144
224
300
372
448
524
600
684
740
708
624
544
464
380
296
212
128
44
-28
-108
-192
-272
-296
-256
-216
-180
-144
-100
-68
-56
-64
-68
-68
-68
-64
-64
-64
-64
-64
-68
-68
-64
-68
-64
-60
-64
-64
-64
-64
-64
-60
-56
-60
-60
-56
-56
-56
-52
-52
-48
-48
-48
-44
-44
-44
-44
-44
-36
-32
-32
-28
-28
-28
-24
-24
-20
-12
-8
-8
-8
-4
0
-4
0
0
8
8
16
16
16
20
24
28
28
32
44
48
56
64
72
76
84
92
96
100
108
120
120
116
112
112
108
104
100
100
96
92
88
88
92
88
68
48
36
20
4
-8
-24
-32
-36
-40
-56
-64
-68
-68
-68
-68
-64
-68
-64
-64
-68
-64
-60
-64
-64
-64
-68
-64
-64
-64
-64
-64
-68
-64
-60
-60
-64
-64
-56
-48
-40
-28
-20
-12
-4
0
0
8
16
16
20
20
28
28
28
32
28
28
32
36
32
28
28
24
16
16
12
4
0
-4
-8
-16
-24
-32
-40
-52
-60
-68
-68
-64
-60
-60
-64
-64
-64
-64
-64
-64
-64
-64
-68
-68
-64
-64
-68
-68
-68
-64
-64
-64
-64
-64
-64
-64
-64
-64
-60
-60
-64
-64
-64
-68
-68
-64
-60
-60
-60
-68
-92
-128
-160
-188
-224
-252
-220
-148
-76
0
72
148
224
300
380
456
528
596
680
740
712
624
540
460
376
296
212
128
44
-32
-112
-196-276
-296
-256
-216
-180
-140
-100
-76
-68
-68
-68
-68
-68
-72
-68
-64
-68
-68
-68
-68
-68
-68
-64
-64
-64
-64
-64
-60
-60
-60
-60
-56
-56
-56
-56
-56
-52
-52
-48
-48
-48
-44
-44
-44
-40
-40
-36
-36
-32
-32
-28
-28
-24
-20
-20
-16
-8
-8
-8
-4
-4
-4
0
4
8
8
12
16
20
24
24
28
28
36
44
48
56
64
68
76
84
88
96
104
108
116
116
116
112
112
108
104
96
96
100
88
84
92
88
84
68
52
32
16
0
-16
-28
-28
-36
-44
-52
-60
-68
-68
-60
-64
-64
-68
-68
-68
-64
-64
-68
-68
-64
-64
-68
-68
-64
-64
-64
-64
-60
-64
-68
-64
-64
-64
-56
-48
-36
-28
-24
-16
-4
0
0
12
12
16
16
20
20
24
28
32
32
36
36
32
28
28
20
16
16
12
12
4
0
-4
-8
-16
-24
-32
-40
-44
-52
-60
-64
-64
-64
-64
-64
-60
-60
-64
-68
-64
-64
-64
-68
-72
-68
-68
-68
-68
-68
-64
-60
-64
-64
-64
-64
-68
-68
-64
-64
-60
-64
-64
-64
-64
-68
-64
-64
-64
-64
-72
-96
-128
-160
-188
-220
-252
-224
-148
-72
0
72
148
228
300
376
456
528
600
684
740
708
616
540
460
372
292
208
124
44
-32
-116
-200
-276
-292
-252
-212
-176
-140
-100
-68
-60
-68
-68
-68
-68
-68
-60
-64
-68
-68
-68
-64
-60
-60
-60
-60
-64
-60
-60
-64
-60
-60
-60
-60
-60
-56
-60
-56
-52
-52
-48
-48
-48
-48
-44
-44
-40
-40
-40
-36
-36
-36
-32
-28
-28
-24
-20
-20
-20
-12
-8
-8
-4
0
0
0
4
8
16
16
20
24
24
24
28
32
40
48
56
64
68
76
88
92
100
108
112
116
120
112
112
112
108
104
100
92
92
88
88
88
88
84
68
48
36
16
0
-12
-28
-32
-40
-48
-52
-60
-64
-68
-64
-64
-64
-64
-64
-64
-64
-68
-68
-64
-64
-64
-64
-64
-68
-68
-64
-60
-64
-64
-64
-64
-64
-60
-56
-48
-40
-32
-24
-16
-4
0
0
4
12
16
20
24
24
28
32
28
32
32
28
32
32
28
24
20
16
12
8
8
0
0
-8
-16
-24
-32
-36
-52
-60
-64
-68
-64
-64
-64
-64
-64
-60
-60
-64
-64
-60
-64
-64
-64
-64
-64
-64
-68
-68
-64
-60
-64
-68
-64
-60
-64
-64
-68
-64
-64
-64
-64
-64
-64
-68
-64
-60
-60
-64
-68
-96
-132
-164
-192
-228
-252
-220
-144
-68
4
80
148
228
308
380
456
532
604
684
740
704
616
532
452
372
292
208
124
40
-36
-116
-200-280
-296
-252
-212
-176
-136
-96
-72
-68
-68
-68
-68
-68
-68
-68
-64
-68
-68
-64
-64
-68
-68
-64
-68
-64
-60
-60
-60
-60
-64
-60
-60
-60
-52
-52
-56
-56
-56
-44
-44
-48
-44
-40
-44
-44
-40
-36
-32
-28
-28
-32
-28
-28
-20
-16
-16
-12
-8
-8
-8
-4
0
0
0
0
12
16
20
20
16
16
24
28
32
40
48
56
64
68
76
84
92
100
108
112
116
120
116
116
108
104
104
100
96
92
92
92
88
88
88
68
48
28
12
0
-12
-24
-28
-36
-48
-56
-60
-64
-64
-64
-64
-64
-68
-68
-64
-68
-68
-68
-60
-60
-68
-68
-68
-68
-68
-64
-64
-64
-64
-64
-60
-64
-64
-56
-48
-40
-28
-20
-16
-8
0
0
8
12
12
20
28
28
24
28
28
28
28
28
28
28
28
24
20
20
12
8
0
0
0
-8
-12
-24
-32
-40
-48
-56
-64
-68
-64
-64
-64
-64
-68
-68
-68
-68
-68
-64
-68
-68
-64
-64
-64
-64
-64
-68
-64
-60
-60
-64
-64
-64
-68
-68
-68
-64
-64
-64
-60
-64
-68
-64
-64
-64
-64
-60
-68
-100
-136
-164
-192
-228
-256
-220
-140
-64
8
76
152
228
308
384
460
536
608
688
744
704
620
536
452
368
288
208
124
44
-36
-120
-200
-280
-292
-252
-212
-176
-136
-96
-68
-64
-64
-64
-72
-72
-68
-64
-68
-68
-68
-64
-64
-64
-64
-68
-64
-60
-60
-60
-60
-60
-60
-56
-56
-56
-52
-48
-48
-52
-48
-48
-48
-40
-40
-44
-44
-40
-40
-40
-36
-32
-28
-28
-28
-20
-20
-16
-12
-8
-8
-8
-4
0
0
4
8
8
12
16
20
16
20
28
28
32
32
44
56
60
64
76
80
88
96
100
108
112
116
124
120
116
112
108
104
104
100
96
92
92
92
88
88
72
52
36
16
0
-16
-28
-28
-36
-48
-52
-52
-64
-68
-64
-64
-68
-68
-68
-68
-68
-72
-68
-64
-64
-64
-64
-60
-64
-68
-64
-68
-68
-64
-64
-68
-64
-64
-56
-44
-40
-32
-28
-16
-8
-4
4
8
8
12
20
24
28
28
28
32
32
28
28
24
24
24
20
20
16
16
12
8
0
-4
-8
-16
-28
-32
-40
-48
-56
-64
-68
-64
-64
-64
-68
-64
-64
-68
-64
-64
-68
-68
-64
-60
-60
-68
-64
-64
-64
-64
-64
-60
-60
-64
-64
-64
-64
-60
-64
-64
-60
-64
-64
-60
-60
-64
-68
-68
-64
-72
-104
-132
-160
-192
-228
-256
-224
-144
-68
0
80
160
232
308
388
460
532
604
688
744
700
612
536
456
372
288
204
120
44
-32
-116
-204-280
-292
-248
-212
-176
-140
-96
-64
-64
-64
-68
-68
-64
-64
-64
-68
-64
-64
-68
-68
-64
-64
-64
-64
-64
-64
-60
-60
-60
-64
-60
-56
-60
-56
-52
-52
-52
-48
-44
-44
-44
-44
-40
-40
-40
-40
-36
-36
-32
-24
-24
-24
-20
-20
-20
-12
-12
-8
-4
-4
-4
0
0
0
4
8
12
20
20
24
28
32
32
36
44
56
60
68
76
84
88
88
96
108
112
116
124
120
116
112
108
108
100
96
96
92
92
88
88
88
72
48
36
20
0
-12
-20
-28
-32
-40
-52
-60
-64
-68
-68
-64
-64
-64
-60
-60
-64
-60
-60
-64
-60
-60
-64
-64
-60
-64
-64
-64
-60
-60
-60
-64
-68
-60
-52
-40
-40
-32
-20
-16
-8
0
0
4
8
16
16
20
28
32
28
32
32
28
32
28
28
32
28
20
16
16
12
8
0
-4
-12
-20
-24
-28
-40
-48
-56
-60
-64
-64
-64
-64
-64
-60
-64
-64
-64
-68
-64
-64
-64
-64
-60
-64
-68
-68
-60
-60
-64
-64
-64
-68
-64
-64
-64
-68
-64
-64
-60
-64
-64
-64
-64
-64
-64
-64
-60
-68
-96
-128
-160
-192
-228
-252
-220
-140
-64
8
84
160
240
316
388
460
536
612
692
740
700
616
536
452
368
284
204
124
40
-36
-116
-204
-280
-288
-248
-212
-176
-132
-96
-68
-64
-64
-68
-68
-64
-64
-68
-64
-60
-64
-64
-68
-68
-64
-60
-60
-60
-60
-64
-64
-64
-60
-56
-52
-56
-56
-52
-52
-52
-52
-48
-48
-44
-40
-44
-40
-40
-44
-36
-28
-32
-28
-24
-24
-24
-20
-16
-16
-12
-8
-4
-4
-4
0
0
8
8
12
16
20
24
24
28
32
32
36
44
48
56
64
72
84
92
96
104
108
112
120
124
120
116
112
108
104
100
96
92
96
92
88
88
84
64
44
32
16
0
-12
-28
-32
-36
-44
-52
-60
-64
-64
-64
-64
-64
-60
-64
-68
-68
-68
-64
-60
-64
-68
-64
-64
-64
-64
-60
-60
-64
-64
-68
-68
-68
-64
-56
-44
-40
-32
-16
-8
-4
0
0
4
8
20
20
24
28
32
32
32
32
32
32
32
32
28
24
24
16
12
8
0
0
0
-12
-20
-24
-36
-44
-52
-60
-64
-64
-68
-64
-64
-64
-60
-64
-68
-72
-68
-64
-64
-64
-68
-68
-68
-68
-68
-68
-64
-64
-68
-64
-60
-64
-64
-68
-68
-64
-64
-64
-64
-64
-68
-68
-64
-60
-64
-64
-72
-104
-136
-164
-196
-232
-256
-220
-140
-60
8
80
160
236
312
384
460
536
612
696
740
696
612
532
448
364
284
200
116
36
-40
-120
-208-284
-292
-248
-212
-176
-136
-96
-68
-64
-68
-72
-68
-68
-64
-64
-64
-68
-68
-68
-64
-68
-68
-68
-64
-60
-60
-64
-64
-60
-60
-60
-56
-52
-56
-56
-52
-52
-52
-48
-48
-48
-44
-40
-40
-44
-40
-32
-32
-28
-24
-24
-24
-20
-20
-16
-8
-8
-8
-4
0
-4
0
0
4
8
12
16
24
24
24
28
32
36
44
48
56
64
72
76
80
92
100
104
112
116
124
120
116
116
112
108
104
100
96
96
92
88
92
88
84
72
48
32
16
0
-8
-20
-28
-40
-48
-52
-60
-68
-68
-64
-68
-68
-68
-68
-68
-72
-68
-64
-68
-68
-64
-64
-64
-64
-68
-68
-68
-64
-64
-64
-68
-68
-64
-60
-48
-40
-32
-24
-12
-8
-4
0
8
8
16
16
20
28
28
32
32
32
32
28
28
32
28
28
20
16
16
8
0
0
-4
-12
-20
-24
-32
-44
-52
-60
-68
-68
-64
-64
-68
-68
-68
-64
-64
-64
-64
-64
-64
-64
-64
-64
-64
-64
-68
-68
-64
-64
-64
-60
-64
-68
-68
-64
-60
-64
-60
-60
-64
-60
-64
-68
-64
-64
-68
-60
-68
-100
-136
-168
-196
-228
-256
-220
-136
-60
12
84
164
240
312
388
468
540
612
696
740
692
608
528
448
364
280
200
120
32
-44
-124
-208
-284
-288
-248
-208
-176
-140
-96
-68
-64
-64
-64
-68
-64
-64
-60
-60
-64
-64
-64
-64
-68
-68
-64
-60
-64
-64
-64
-64
-60
-60
-60
-60
-56
-52
-56
-56
-52
-52
-52
-48
-44
-40
-40
-44
-40
-40
-36
-36
-32
-28
-24
-28
-28
-24
-20
-16
-16
-16
-8
-8
-8
-4
0
0
4
12
20
20
16
24
28
28
32
32
40
48
56
64
72
80
88
96
104
112
112
120
124
120
112
112
104
100
100
100
96
92
88
88
88
84
68
48
32
12
-4
-16
-28
-32
-36
-48
-52
-60
-68
-68
-68
-64
-64
-68
-68
-64
-64
-68
-68
-64
-64
-64
-68
-68
-68
-68
-68
-64
-64
-64
-68
-72
-72
-64
-56
-48
-40
-32
-24
-16
-8
-4
0
4
8
12
20
24
24
24
28
28
28
32
28
28
24
24
24
16
12
12
8
4
0
-4
-12
-16
-24
-36
-44
-48
-60
-68
-68
-64
-60
-60
-60
-60
-60
-64
-68
-68
-64
-64
-64
-60
-60
-64
-64
-68
-68
-64
-64
-64
-64
-60
-64
-68
-68
-64
-60
-60
-60
-60
-64
-64
-64
-64
-64
-64
-60
-72
-104
-136
-164
-192
-232
-260
-212
-132
-60
12
88
164
240
316
388
468
544
616
696
740
696
608
528
448
364
280
196
116
36
-40
-124
-208-284
-292
-248
-208
-172
-128
-88
-64
-60
-64
-68
-68
-68
-64
-64
-64
-64
-64
-68
-68
-68
-68
-64
-68
-64
-60
-64
-64
-60
-56
-56
-56
-56
-56
-56
-52
-52
-52
-48
-44
-44
-44
-40
-40
-36
-36
-32
-32
-32
-32
-28
-28
-24
-20
-20
-20
-16
-12
-8
-4
-4
0
0
4
8
8
16
16
20
20
24
28
32
36
44
52
56
68
76
76
88
96
100
104
112
116
120
116
116
112
108
100
100
96
92
88
92
92
88
80
64
44
28
12
0
-16
-28
-32
-40
-48
-52
-60
-68
-68
-64
-68
-68
-64
-68
-64
-64
-68
-68
-64
-64
-64
-64
-64
-68
-68
-68
-68
-64
-68
-64
-64
-68
-68
-60
-48
-40
-28
-24
-16
-8
0
0
8
16
16
16
20
28
32
28
32
28
28
28
28
24
24
24
24
16
12
8
4
0
-4
-16
-20
-28
-40
-48
-52
-60
-68
-68
-64
-64
-68
-64
-64
-68
-68
-64
-68
-68
-68
-64
-64
-68
-64
-64
-68
-64
-64
-68
-64
-64
-64
-64
-68
-68
-68
-68
-68
-60
-64
-68
-64
-68
-64
-64
-64
-60
-72
-104
-140
-168
-196
-232
-256
-216
-132
-56
12
88
164
240
316
392
468
544
616
696
740
692
604
524
444
360
276
196
112
28
-48
-132
-216
-288
-292
-248
-208
-168
-132
-96
-68
-64
-68
-64
-68
-68
-64
-64
-68
-64
-60
-64
-68
-68
-68
-64
-64
-64
-64
-64
-64
-60
-60
-56
-56
-56
-52
-56
-60
-56
-52
-48
-52
-48
-44
-44
-40
-40
-44
-40
-36
-32
-28
-28
-28
-24
-20
-20
-16
-12
-8
-8
-8
-8
-4
0
0
8
8
12
16
20
24
28
28
32
40
40
48
60
72
72
80
88
96
100
108
112
116
120
116
112
112
108
104
100
96
96
92
88
88
80
72
60
44
32
12
0
-16
-28
-32
-40
-44
-52
-60
-64
-68
-68
-68
-64
-64
-68
-68
-64
-64
-68
-72
-68
-64
-68
-64
-64
-68
-64
-64
-64
-64
-64
-68
-68
-60
-56
-44
-36
-28
-20
-12
-4
0
0
4
8
16
24
20
24
28
28
28
28
28
28
32
32
28
20
16
12
8
8
0
0
-8
-16
-20
-28
-36
-44
-52
-64
-68
-68
-68
-68
-68
-68
-68
-68
-68
-64
-64
-64
-64
-64
-64
-64
-64
-64
-68
-64
-64
-64
-64
-64
-68
-68
-64
-68
-68
-68
-68
-64
-60
-64
-64
-68
-68
-68
-64
-64
-76
-104
-136
-164
-196
-232
-256
-212
-128
-60
12
92
168
240
316
392
472
544
616
696
740
692
604
524
444
360
276
192
112
28
-52
-128
-212-288
-288
-244
-204
-172
-132
-92
-64
-64
-68
-68
-68
-64
-64
-68
-64
-64
-64
-64
-64
-64
-64
-64
-68
-64
-60
-60
-60
-60
-60
-64
-60
-60
-56
-56
-52
-52
-52
-52
-48
-48
-44
-48
-44
-40
-36
-40
-36
-32
-24
-24
-24
-24
-20
-16
-12
-12
-12
-8
-4
0
-4
0
4
4
12
12
12
20
20
24
28
32
36
44
52
64
68
76
80
88
96
104
108
112
116
116
112
112
112
108
100
96
96
92
92
88
88
88
80
68
48
28
8
-4
-16
-24
-32
-40
-48
-52
-60
-64
-64
-68
-68
-64
-64
-64
-64
-68
-68
-68
-68
-64
-64
-64
-68
-68
-64
-64
-64
-64
-64
-64
-64
-64
-64
-56
-48
-40
-32
-24
-12
-8
-4
0
4
8
12
20
20
28
32
32
28
28
28
32
28
28
28
24
16
12
16
8
4
0
-4
-16
-20
-28
-36
-44
-52
-60
-72
-68
-64
-64
-68
-64
-64
-64
-64
-68
-68
-68
-64
-64
-64
-68
-68
-64
-68
-68
-68
-64
-64
-68
-64
-64
-64
-64
-60
-60
-64
-64
-64
-64
-68
-68
-60
-60
-64
-64
-72
-104
-136
-164
-196
-232
-252
-208
-132
-56
16
92
168
240
316
392
472
548
620
700
744
692
600
524
448
360
272
184
104
24
-52
-132
-220
-288
-284
-244
-208
-168
-128
-88
-64
-64
-64
-68
-72
-68
-64
-64
-68
-68
-64
-68
-64
-64
-64
-64
-64
-60
-60
-60
-60
-60
-60
-60
-60
-56
-56
-56
-52
-52
-52
-52
-52
-48
-44
-44
-40
-40
-40
-36
-32
-36
-32
-28
-24
-20
-20
-20
-16
-12
-8
-8
-4
-4
0
0
0
8
12
20
20
16
20
28
28
28
36
44
52
56
64
76
84
92
92
100
108
112
116
120
116
112
112
108
100
96
96
92
92
88
84
84
76
60
44
28
12
0
-16
-32
-36
-44
-48
-56
-68
-68
-68
-72
-68
-64
-68
-68
-64
-64
-68
-72
-68
-68
-68
-68
-68
-68
-68
-68
-68
-64
-64
-64
-64
-68
-64
-52
-48
-40
-28
-24
-12
-4
-4
0
8
12
16
20
24
24
28
28
28
28
28
24
28
32
24
20
16
16
12
8
4
0
-4
-12
-24
-28
-32
-40
-48
-60
-64
-68
-72
-64
-64
-64
-64
-64
-64
-68
-68
-68
-68
-64
-64
-64
-68
-68
-68
-64
-64
-60
-60
-64
-64
-64
-68
-64
-64
-64
-64
-64
-60
-64
-64
-64
-60
-60
-64
-64
-76
-108
-136
-168
-204
-236
-252
-208
-128
-52
16
88
172
252
324
396
472
548
624
700
740
684
596
520
436
352
268
188
108
24
-56
-132
-220-292
-288
-244
-208
-172
-132
-92
-72
-64
-64
-64
-68
-68
-64
-68
-68
-64
-64
-68
-68
-64
-64
-68
-64
-60
-64
-64
-64
-60
-60
-56
-60
-60
-56
-56
-52
-52
-52
-52
-52
-52
-48
-44
-44
-44
-44
-36
-32
-36
-32
-28
-28
-24
-20
-20
-16
-16
-8
-8
-8
0
0
0
4
4
4
16
16
16
16
20
28
32
36
44
56
60
64
72
80
88
92
96
104
112
116
116
112
112
108
108
100
96
92
88
88
92
92
88
80
68
48
28
12
-4
-20
-28
-28
-40
-48
-56
-64
-68
-64
-68
-68
-64
-68
-68
-68
-68
-68
-68
-72
-64
-64
-64
-64
-68
-68
-64
-60
-60
-60
-64
-64
-64
-64
-56
-44
-36
-28
-20
-12
-8
0
4
4
8
16
16
16
24
24
28
32
32
28
28
24
28
24
20
20
16
8
8
4
0
-4
-8
-20
-28
-36
-44
-56
-64
-68
-68
-68
-64
-64
-68
-68
-68
-68
-64
-68
-64
-64
-64
-64
-68
-72
-68
-64
-64
-64
-64
-64
-60
-68
-68
-64
-68
-68
-68
-68
-64
-64
-64
-60
-64
-64
-60
-64
-64
-72
-100
-136
-168
-200
-232
-252
-204
-124
-48
20
92
168
248
324
400
476
548
624
704
740
684
600
520
440
356
268
188
108
28
-52
-136
-224
-288
-288
-244
-204
-168
-128
-88
-68
-64
-68
-68
-64
-64
-68
-64
-64
-68
-64
-60
-60
-64
-64
-64
-64
-64
-64
-64
-60
-60
-56
-60
-56
-52
-52
-56
-56
-52
-48
-52
-52
-48
-44
-44
-40
-40
-40
-40
-36
-32
-24
-24
-28
-24
-16
-16
-16
-12
-8
-4
-4
-4
0
0
0
8
8
12
12
16
20
24
28
32
40
44
52
64
72
76
80
92
96
100
108
112
112
120
116
112
112
108
104
100
96
92
88
92
92
88
80
64
44
32
16
0
-12
-24
-32
-40
-44
-52
-60
-64
-68
-68
-68
-64
-60
-60
-64
-68
-72
-68
-64
-64
-64
-64
-64
-64
-64
-64
-64
-64
-64
-64
-64
-64
-64
-52
-44
-36
-24
-16
-12
-4
0
0
4
12
16
20
24
28
32
32
36
36
32
28
28
32
28
24
20
16
16
12
0
0
-4
-8
-16
-24
-32
-36
-48
-56
-64
-68
-64
-60
-60
-64
-64
-64
-68
-68
-64
-64
-64
-60
-64
-68
-68
-64
-64
-64
-64
-64
-64
-64
-68
-64
-64
-64
-64
-64
-60
-60
-60
-60
-64
-64
-64
-68
-64
-60
-76
-108
-140
-172
-204
-232
-252
-204
-124
-52
20
96
172
252
328
404
476
552
632
712
744
684
600
516
432
352
268
184
104
24
-52
-136
-224-132
-132
-132
-132
-132
-132
-128
-132
-136
-132
-128
-128
-128
-128
-128
-128
-124
-120
-120
-124
-124
-116
-116
-108
-104
-100
-96
-96
-92
-88
-84
-80
-80
-76
-76
-72
-68
-64
-56
-52
-48
-44
-44
-36
-28
-24
-16
-12
-8
0
0
4
12
20
32
40
44
48
56
60
64
72
84
100
120
132
148
164
176
184
196
212
224
236
248
248
240
228
220
212
204
196
196
192
184
180
180
172
144
112
80
44
8
-20
-48
-60
-76
-92
-104
-116
-132
-136
-132
-132
-132
-132
-128
-132
-136
-132
-132
-132
-132
-132
-128
-124
-136
-136
-132
-132
-132
-128
-128
-128
-132
-136
-120
-100
-84
-68
-48
-32
-20
-4
4
12
16
28
36
44
56
60
60
64
64
60
56
60
60
56
52
44
36
32
24
12
4
0
-12
-32
-48
-64
-80
-92
-112
-132
-136
-132
-128
-132
-140
-132
-128
-128
-132
-128
-132
-128
-128
-132
-132
-132
-132
-132
-128
-128
-128
-132
-132
-132
-132
-132
-132
-132
-132
-128
-124
-132
-132
-128
-128
-132
-132
-132
-124
-136
-180
-244
-312
-372
-436
-504
-480
-332
-172
-24
124
276
428
576
728
884
1032
1180
1340
1476
1448
1276
1104
944
780
616
452
288
124
-36
-196
-360
-532
-596
-528
-440
-372
-300
-216
-148
-132
-136
-132
-132
-136
-132
-132
-132
-132
-132
-132
-132
-132
-128
-132
-132
-132
-132
-124
-124
-124
-120
-120
-116
-112
-112
-112
-108
-108
-104
-104
-100
-96
-92
-92
-84
-84
-80
-72
-72
-68
-64
-60
-52
-48
-44
-36
-32
-32
-24
-20
-12
-8
-4
0
12
16
20
32
36
44
48
52
52
60
72
84
96
112
132
148
164
176
188
200
212
220
232
244
240
228
224
220
212
204
204
196
188
188
180
184
176
144
108
76
44
8
-24
-48
-64
-76
-88
-100
-116
-132
-136
-136
-132
-132
-132
-132
-132
-132
-132
-140
-136
-128
-128
-132
-128
-128
-132
-128
-132
-132
-132
-132
-132
-132
-132
-124
-104
-84
-64
-52
-36
-16
-4
4
8
20
28
36
48
56
60
64
60
60
60
60
64
68
60
52
48
36
24
24
16
8
0
-16
-32
-48
-60
-80
-96
-112
-128
-132
-128
-132
-132
-132
-132
-128
-128
-128
-128
-132
-132
-128
-128
-128
-128
-128
-128
-132
-132
-128
-128
-128
-128
-132
-132
-132
-128
-128
-132
-128
-128
-128
-124
-128
-132
-128
-128
-128
-136
-180
-244
-308
-368
-432
-504
-476
-328
-168
-20
128
276
424
580
732
888
1040
1180
1344
1476
1444
1272
1104
944
780
616
452
288
124
-40
-204
-372
-536
-592
-524
-440
-368
-292
-212
-148
-132
-136
-132
-132-132
-132
-128
-132
-132
-132
-128
-132
-132
-132
-132
-132
-128
-128
-124
-120
-120
-120
-120
-120
-116
-116
-112
-112
-108
-104
-104
-100
-96
-88
-84
-84
-80
-76
-72
-68
-64
-56
-56
-48
-40
-40
-32
-32
-28
-20
-16
-12
-8
-4
0
8
16
24
36
44
44
48
52
56
68
76
88
104
120
132
148
164
172
188
204
216
224
240
248
244
236
232
224
212
208
200
192
192
192
184
180
172
148
112
80
48
12
-20
-44
-60
-72
-84
-100
-120
-132
-136
-136
-136
-132
-132
-132
-132
-132
-136
-136
-136
-132
-128
-128
-128
-136
-136
-132
-128
-132
-128
-128
-128
-128
-124
-116
-100
-84
-64
-48
-32
-16
0
4
12
24
32
40
52
56
56
60
60
60
64
64
64
64
64
56
48
40
28
20
16
8
0
-12
-32
-52
-68
-76
-92
-116
-128
-128
-132
-136
-132
-132
-128
-132
-128
-132
-132
-128
-132
-128
-128
-128
-124
-128
-132
-132
-136
-132
-132
-136
-132
-128
-132
-132
-132
-128
-132
-128
-124
-128
-128
-124
-124
-132
-132
-124
-132
-184
-252
-316
-372
-440
-508
-472
-324
-168
-16
136
280
428
584
736
888
1040
1188
1348
1480
1440
1268
1104
944
776
612
448
276
112
-48
-204
-372
-540
-596
-528
-444
-372
-296
-208
-148
-132
-140
-140
-136
-136
-140
-140
-136
-136
-136
-136
-132
-132
-132
-128
-128
-128
-128
-128
-124
-124
-120
-120
-120
-116
-112
-108
-108
-108
-108
-104
-104
-92
-92
-92
-84
-80
-80
-76
-72
-68
-60
-56
-52
-44
-40
-36
-36
-28
-24
-16
-12
-4
0
0
8
16
24
32
40
44
52
52
56
64
76
84
100
116
132
148
160
172
188
200
212
228
236
244
244
236
224
220
216
204
200
196
188
184
184
180
176
148
108
72
44
8
-24
-48
-60
-72
-88
-104
-120
-128
-132
-132
-128
-128
-132
-132
-132
-128
-132
-132
-132
-132
-128
-132
-132
-132
-132
-132
-136
-132
-132
-132
-132
-136
-136
-120
-100
-84
-68
-48
-36
-20
-4
0
8
20
28
36
44
52
60
60
60
60
60
60
60
60
60
56
44
36
28
20
12
4
0
-16
-32
-48
-64
-84
-100
-112
-128
-132
-128
-128
-132
-132
-136
-132
-132
-132
-132
-132
-132
-128
-128
-132
-132
-128
-132
-132
-132
-132
-132
-128
-128
-132
-132
-132
-132
-128
-132
-132
-128
-128
-128
-124
-132
-136
-132
-128
-140
-188
-252
-312
-372
-444
-508
-464
-320
-164
-16
132
284
436
592
740
892
1044
1192
1356
1484
1436
1264
1096
936
776
612
444
276
112
-52
-208
-376
-540
-592
-520
-436
-364
-292
-208
-144
-128
-136
-132
-132-128
-132
-136
-128
-128
-132
-132
-128
-132
-132
-132
-124
-120
-124
-124
-120
-120
-120
-116
-116
-116
-112
-104
-104
-104
-104
-96
-96
-88
-84
-84
-80
-76
-76
-72
-64
-60
-52
-48
-44
-40
-36
-32
-24
-20
-16
-8
0
0
4
8
20
28
32
40
44
48
56
60
64
76
96
112
128
140
156
168
184
196
208
220
236
248
248
236
228
224
216
208
200
196
192
188
180
180
180
156
124
92
56
20
-8
-36
-52
-68
-84
-96
-112
-128
-132
-132
-136
-132
-132
-132
-132
-132
-132
-132
-136
-132
-128
-128
-132
-132
-128
-128
-128
-128
-124
-128
-132
-132
-128
-124
-108
-92
-76
-56
-40
-20
-4
0
8
20
28
40
48
48
56
64
64
60
60
64
60
68
68
60
48
40
28
20
16
4
0
-4
-24
-40
-60
-76
-88
-104
-124
-132
-132
-132
-132
-132
-132
-132
-132
-128
-128
-128
-132
-132
-132
-132
-128
-128
-132
-132
-132
-136
-132
-132
-128
-128
-128
-132
-136
-132
-128
-128
-128
-128
-128
-128
-128
-128
-132
-128
-128
-160
-224
-288
-348
-412
-488
-504
-384
-220
-76
76
232
376
528
680
828
980
1136
1288
1444
1480
1340
1164
1004
836
668
508
344
180
16
-140
-304
-484
-592
-556
-468
-388
-320
-244
-164
-128
-132
-132
-128
-132
-132
-132
-132
-132
-132
-132
-132
-132
-132
-132
-124
-124
-128
-128
-124
-124
-124
-120
-120
-116
-116
-116
-112
-108
-108
-104
-100
-92
-88
-88
-84
-84
-80
-76
-72
-68
-64
-56
-52
-48
-44
-40
-32
-32
-28
-16
-16
-12
0
0
8
16
20
28
36
40
52
56
60
64
72
80
100
116
128
140
160
172
180
196
212
220
228
240
244
232
220
216
216
212
204
200
196
188
184
184
180
156
124
92
56
20
-12
-40
-56
-72
-80
-92
-108
-124
-128
-132
-136
-132
-128
-132
-128
-128
-128
-132
-132
-128
-128
-132
-132
-132
-128
-132
-132
-128
-128
-132
-128
-128
-132
-124
-104
-84
-72
-60
-40
-24
-8
0
4
16
28
32
40
48
56
60
64
60
56
60
64
60
60
52
48
40
32
24
16
12
8
-4
-28
-44
-60
-76
-88
-108
-124
-132
-132
-132
-128
-128
-128
-132
-132
-128
-124
-128
-132
-128
-128
-128
-124
-120
-128
-128
-128
-132
-132
-124
-124
-124
-128
-128
-128
-128
-128
-128
-120
-120
-124
-124
-128
-128
-128
-124
-124
-156
-220
-288
-352
-412
-488
-500
-376
-212
-64
84
232
380
532
684
840
996
1144
1296
1452
1480
1336
1160
1000
832
672
508
344
176
8
-148
-304
-484
-592
-548
-464
-392
-320
-240
-160
-128
-132
-132
-132
-136
-136-132
-128
-128
-132
-132
-132
-132
-128
-128
-124
-124
-124
-128
-124
-120
-120
-120
-116
-112
-108
-108
-108
-104
-100
-96
-92
-88
-84
-84
-80
-76
-76
-72
-64
-60
-60
-56
-52
-40
-36
-32
-24
-24
-16
-12
-8
-4
4
8
16
24
28
36
44
52
52
60
68
68
80
100
116
132
148
164
180
192
204
216
224
236
248
244
236
228
224
220
208
200
200
196
188
188
184
176
152
116
80
48
12
-20
-44
-56
-68
-84
-100
-116
-132
-132
-128
-132
-128
-124
-132
-132
-132
-136
-128
-124
-128
-128
-128
-132
-132
-132
-132
-128
-128
-124
-128
-132
-128
-128
-116
-104
-88
-68
-52
-32
-16
0
4
12
24
32
40
48
52
60
64
60
64
64
64
64
64
64
56
48
40
36
28
20
8
0
-12
-28
-44
-60
-76
-92
-108
-128
-132
-128
-128
-132
-128
-128
-128
-128
-124
-128
-128
-128
-128
-128
-124
-124
-128
-128
-128
-128
-128
-124
-128
-132
-128
-128
-128
-128
-128
-128
-124
-124
-128
-128
-128
-124
-124
-124
-124
-128
-172
-240
-304
-364
-428
-500
-480
-340
-180
-36
112
268
420
572
720
872
1028
1176
1332
1476
1456
1292
1124
964
796
632
464
300
136
-24
-184
-348
-524
-596
-536
-452
-376
-296
-216
-148
-128
-128
-132
-132
-136
-136
-136
-132
-132
-128
-132
-132
-132
-132
-128
-124
-124
-124
-124
-124
-124
-120
-120
-116
-112
-112
-112
-108
-104
-104
-100
-96
-96
-92
-88
-84
-80
-80
-76
-68
-64
-60
-56
-48
-44
-40
-36
-32
-28
-20
-12
-12
-8
0
4
8
16
28
32
36
40
48
52
60
68
72
84
100
112
124
140
160
176
184
196
212
220
236
244
244
236
228
220
216
208
200
200
196
184
180
184
176
148
112
80
48
12
-20
-48
-60
-68
-84
-104
-120
-128
-128
-132
-128
-128
-128
-128
-136
-136
-132
-132
-132
-132
-132
-128
-128
-132
-132
-132
-132
-128
-128
-128
-128
-132
-128
-116
-96
-80
-68
-52
-36
-16
-4
4
12
20
32
40
44
52
60
64
60
60
64
64
68
68
64
56
48
44
32
20
12
8
0
-16
-32
-48
-60
-76
-96
-112
-124
-132
-136
-136
-132
-128
-128
-132
-132
-128
-128
-128
-132
-132
-132
-132
-128
-128
-132
-132
-124
-128
-124
-128
-132
-132
-132
-132
-124
-124
-128
-124
-128
-132
-128
-128
-128
-124
-124
-120
-128
-176
-240
-304
-368
-436
-504
-480
-336
-176
-28
116
268
424
576
728
876
1032
1180
1336
1476
1456
1292
1124
960
788
628
468
292
128
-24
-184
-352
-524
-592
-528
-448
-376
-300
-220
-148
-128
-136
-132
-132
-132
-132
-132-132
-132
-128
-128
-128
-128
-132
-128
-124
-120
-120
-124
-124
-120
-120
-116
-112
-116
-112
-112
-112
-108
-104
-100
-92
-92
-88
-88
-88
-84
-80
-72
-64
-60
-60
-56
-56
-48
-40
-36
-32
-28
-20
-16
-12
-8
0
4
8
20
28
32
40
44
48
52
60
68
72
84
100
116
132
144
160
180
192
204
216
228
236
244
244
236
232
220
216
208
200
196
192
188
184
180
176
148
112
76
44
16
-16
-44
-56
-68
-84
-100
-116
-128
-128
-128
-128
-132
-132
-132
-128
-132
-132
-132
-128
-128
-132
-132
-128
-132
-132
-132
-128
-124
-128
-132
-132
-136
-132
-116
-100
-84
-68
-52
-36
-16
0
8
20
24
32
40
48
56
60
64
64
60
64
68
64
64
60
56
52
44
32
28
16
4
0
-16
-32
-44
-60
-76
-92
-112
-128
-132
-136
-132
-128
-128
-128
-132
-132
-128
-124
-128
-128
-124
-128
-128
-128
-128
-124
-128
-128
-128
-128
-128
-128
-128
-128
-128
-128
-124
-124
-124
-128
-128
-124
-124
-128
-124
-120
-120
-132
-184
-248
-308
-368
-436
-504
-476
-332
-180
-32
120
272
424
576
732
880
1032
1176
1336
1476
1444
1280
1112
952
788
620
456
292
128
-32
-192
-356
-528
-600
-532
-448
-372
-300
-216
-144
-128
-132
-132
-136
-136
-136
-132
-132
-132
-132
-132
-132
-132
-136
-132
-132
-128
-124
-128
-128
-128
-124
-120
-120
-116
-116
-112
-108
-108
-108
-104
-96
-96
-92
-88
-84
-84
-80
-76
-72
-64
-64
-56
-48
-48
-44
-40
-32
-24
-20
-16
-12
-8
-4
0
8
16
20
24
32
40
48
56
60
68
72
84
100
116
132
144
160
176
184
200
212
220
232
244
240
232
228
220
212
208
196
188
188
188
184
180
172
152
116
76
44
8
-20
-44
-60
-72
-88
-104
-120
-132
-136
-136
-136
-128
-132
-132
-132
-136
-136
-132
-132
-132
-132
-132
-132
-132
-136
-128
-128
-132
-132
-132
-132
-132
-132
-120
-100
-80
-68
-52
-32
-20
-8
4
12
20
32
36
40
52
56
56
60
64
64
64
64
64
60
56
44
36
32
28
16
4
0
-12
-32
-52
-68
-80
-92
-112
-128
-136
-136
-132
-132
-132
-132
-132
-128
-132
-132
-128
-128
-128
-128
-132
-136
-132
-128
-128
-128
-128
-132
-132
-132
-132
-132
-132
-132
-128
-128
-132
-132
-132
-132
-128
-124
-124
-128
-128
-136
-184
-248
-308
-368
-436
-508
-476
-328
-172
-24
124
276
428
576
732
888
1032
1180
1344
1476
1444
1276
1104
944
784
616
448
284
124
-36
-196
-360
-532
-596
-528
-448
-372
-296
-212
-148
-128
-132
-132
-136
-136
-132
-136-132
-132
-136
-136
-132
-132
-132
-132
-132
-128
-128
-128
-128
-128
-124
-124
-120
-116
-116
-116
-116
-112
-108
-104
-100
-96
-92
-88
-84
-84
-84
-80
-76
-72
-60
-56
-56
-48
-48
-40
-32
-28
-28
-24
-16
-12
-4
0
0
12
24
28
36
40
44
48
56
64
72
84
96
112
128
144
160
176
188
200
208
220
232
240
240
232
224
220
212
200
200
196
192
188
184
180
176
148
108
72
40
12
-20
-48
-64
-76
-88
-108
-124
-132
-136
-136
-132
-128
-132
-136
-132
-132
-136
-128
-132
-132
-132
-132
-132
-132
-132
-128
-132
-132
-132
-136
-136
-136
-128
-120
-100
-88
-68
-48
-32
-16
-4
0
8
20
28
36
44
52
56
60
60
64
60
60
60
60
56
52
48
40
28
20
12
8
0
-16
-36
-48
-60
-76
-92
-112
-128
-132
-128
-128
-128
-128
-128
-132
-128
-128
-136
-136
-128
-128
-132
-132
-132
-132
-132
-128
-128
-128
-124
-124
-128
-128
-128
-132
-132
-128
-132
-128
-128
-128
-128
-128
-128
-128
-128
-124
-132
-180
-248
-312
-372
-436
-508
-476
-324
-168
-20
128
280
428
580
736
888
1036
1188
1348
1476
1440
1272
1104
948
780
612
448
284
124
-40
-200
-368
-536
-596
-524
-440
-368
-288
-208
-144
-128
-136
-132
-136
-136
-132
-128
-128
-128
-132
-132
-132
-132
-132
-128
-132
-128
-124
-128
-124
-120
-124
-124
-116
-116
-116
-112
-108
-112
-108
-104
-96
-92
-92
-92
-88
-84
-80
-76
-68
-64
-64
-60
-52
-48
-44
-36
-32
-28
-24
-20
-16
-8
0
4
4
12
24
36
36
44
44
48
56
64
72
88
104
112
128
148
160
172
188
204
212
220
232
248
244
236
228
220
216
204
200
196
188
184
184
180
172
144
108
76
44
8
-24
-44
-56
-76
-92
-104
-120
-132
-132
-136
-136
-132
-132
-136
-136
-136
-132
-132
-132
-132
-132
-136
-140
-136
-136
-136
-136
-132
-132
-136
-136
-136
-136
-120
-100
-80
-68
-56
-36
-16
-4
0
8
20
28
36
44
48
56
60
60
60
60
60
60
60
56
52
44
36
32
24
12
4
-4
-20
-32
-48
-68
-76
-96
-116
-132
-132
-132
-128
-132
-132
-128
-132
-132
-128
-132
-128
-132
-132
-132
-128
-128
-128
-128
-132
-136
-128
-132
-132
-132
-132
-132
-132
-132
-128
-128
-128
-128
-128
-128
-128
-128
-132
-132
-124
-136
-184
-248
-316
-376
-436
-504
-468
-320
-164
-16
128
284
436
584
736
892
1044
1192
1352
1480
1436
1268
1104
940
768
608
448
280
116
-40
-204
-372
-536
-592
-524
-440
-364
-288
-212
-144
-128
-132
-128
-132
-136
-132
-132-132
-128
-132
-132
-132
-132
-132
-132
-128
-128
-128
-124
-124
-124
-124
-120
-116
-112
-112
-112
-108
-108
-108
-104
-100
-96
-92
-92
-88
-84
-80
-76
-72
-68
-60
-56
-52
-44
-48
-44
-36
-28
-24
-16
-12
-8
-4
4
8
12
24
28
32
44
48
48
52
64
76
88
104
116
128
144
156
172
188
204
212
224
240
244
240
232
224
220
212
204
200
192
188
188
184
184
176
148
108
76
44
4
-24
-44
-60
-76
-92
-108
-120
-132
-132
-132
-132
-136
-136
-132
-132
-136
-136
-128
-128
-132
-132
-132
-132
-132
-132
-128
-128
-132
-132
-136
-136
-132
-132
-116
-100
-84
-68
-52
-32
-20
-4
0
12
24
28
40
48
52
60
68
64
60
64
68
60
56
56
48
40
36
32
20
12
4
0
-16
-32
-44
-60
-80
-100
-116
-128
-132
-136
-136
-132
-128
-132
-132
-132
-132
-132
-132
-132
-124
-128
-132
-128
-128
-128
-128
-128
-128
-128
-128
-128
-128
-132
-128
-128
-128
-128
-128
-128
-132
-136
-132
-128
-128
-128
-128
-140
-184
-252
-320
-376
-444
-508
-468
-320
-164
-12
136
288
440
592
744
892
1040
1192
1352
1480
1440
1268
1100
936
772
604
440
276
112
-48
-204
-372
-544
-600
-520
-440
-372
-296
-212
-144
-128
-136
-136
-136
-132
-132
-128
-128
-132
-136
-132
-132
-132
-128
-132
-132
-128
-124
-124
-128
-128
-124
-120
-112
-116
-120
-116
-108
-104
-104
-104
-100
-88
-88
-92
-88
-80
-80
-72
-72
-68
-60
-60
-60
-48
-44
-40
-32
-24
-24
-20
-12
-8
-4
0
4
12
24
28
32
40
44
48
56
60
68
84
100
112
128
144
160
176
188
196
208
220
232
244
240
228
224
216
208
200
192
192
188
184
180
180
168
140
104
72
40
4
-24
-48
-64
-80
-92
-104
-120
-132
-132
-132
-132
-132
-132
-132
-136
-140
-136
-132
-132
-132
-132
-132
-136
-136
-132
-132
-132
-132
-136
-136
-132
-132
-132
-120
-100
-84
-68
-48
-32
-16
-4
4
12
20
28
36
44
48
52
56
60
60
60
64
64
60
60
56
52
40
28
24
16
4
0
-16
-36
-52
-60
-80
-96
-112
-124
-132
-128
-128
-128
-128
-128
-128
-132
-132
-128
-128
-128
-128
-128
-128
-124
-128
-132
-132
-132
-128
-128
-128
-132
-132
-132
-128
-128
-128
-128
-128
-132
-128
-128
-128
-124
-124
-128
-124
-136
-192
-256
-316
-380
-444
-508
-468
-312
-152
-8
132
284
444
596
744
896
1048
1192
1356
1480
1428
1260
1100
936
768
604
436
276
112
-52
-208
-376
-540
-588
-512
-432
-364
-288
-208
-140
-124
-132
-132
-132
-132
-132
-132-128
-132
-136
-132
-132
-132
-128
-128
-132
-124
-128
-132
-128
-124
-124
-124
-116
-112
-112
-112
-112
-108
-104
-100
-96
-92
-92
-92
-84
-84
-80
-80
-72
-64
-64
-56
-48
-52
-48
-40
-32
-28
-20
-16
-16
-8
0
0
4
12
20
28
36
40
44
52
60
64
68
84
104
112
124
144
164
172
188
200
208
220
236
240
236
232
224
216
212
204
196
192
188
184
184
184
172
144
108
72
40
4
-28
-48
-60
-80
-92
-100
-120
-132
-132
-132
-132
-132
-132
-136
-132
-132
-136
-132
-128
-132
-132
-132
-136
-136
-132
-132
-136
-132
-132
-132
-132
-132
-128
-116
-100
-80
-64
-52
-32
-16
-4
0
12
20
28
36
44
48
52
60
60
64
64
60
60
60
60
52
40
36
28
16
12
4
-4
-20
-32
-52
-68
-84
-100
-120
-136
-136
-136
-132
-132
-132
-132
-132
-136
-136
-136
-132
-132
-128
-132
-136
-136
-132
-136
-136
-132
-128
-128
-128
-128
-128
-128
-132
-132
-132
-132
-132
-132
-132
-136
-132
-128
-128
-132
-128
-140
-188
-260
-324
-376
-444
-512
-464
-308
-156
-8
144
288
440
600
752
900
1048
1196
1360
1480
1428
1260
1092
928
764
596
432
268
104
-52
-212
-384
-548
-592
-520
-440
-364
-288
-208
-144
-132
-136
-132
-136
-136
-132
-128
-132
-132
-136
-132
-132
-132
-128
-128
-128
-124
-124
-124
-128
-128
-120
-116
-120
-116
-108
-108
-108
-104
-108
-100
-92
-88
-88
-84
-80
-80
-80
-76
-72
-68
-60
-60
-52
-48
-40
-36
-32
-24
-20
-16
-12
-8
0
4
12
20
28
32
36
40
48
56
60
64
72
84
100
116
136
152
164
180
192
204
212
216
232
244
240
232
224
220
212
204
200
196
192
188
184
184
172
144
108
72
36
4
-24
-48
-60
-76
-92
-108
-120
-128
-132
-128
-128
-128
-128
-132
-136
-136
-136
-132
-128
-132
-132
-132
-132
-136
-132
-132
-132
-132
-132
-132
-132
-132
-132
-116
-96
-84
-64
-44
-36
-20
0
4
8
20
32
40
44
52
60
60
60
64
68
64
64
60
56
52
44
36
28
20
16
4
-4
-20
-36
-48
-64
-80
-96
-116
-132
-136
-132
-132
-132
-128
-128
-132
-132
-132
-132
-132
-132
-132
-128
-128
-128
-128
-132
-128
-128
-128
-132
-132
-128
-132
-128
-128
-132
-128
-128
-132
-128
-128
-132
-128
-124
-124
-128
-124
-136
-188
-256
-320
-376
-444
-508
-460
-308
-156
-8
144
292
444
604
756
900
1052
1204
1364
1484
1424
1256
1092
928
760
596
432
264
100
-60
-216
-384
-552
-588
-508
-428
-360
-284
-204
-144
-128
-132
-128
-132
-132
-128
-128-132
-128
-132
-132
-132
-132
-128
-128
-132
-128
-124
-124
-124
-124
-120
-116
-116
-112
-108
-112
-108
-104
-104
-100
-96
-92
-88
-88
-84
-80
-76
-76
-72
-68
-60
-56
-52
-48
-40
-32
-28
-24
-24
-20
-16
-8
0
0
8
16
24
32
36
40
48
52
56
68
76
88
100
120
136
148
160
172
188
204
212
220
236
244
236
232
224
216
208
200
192
188
188
188
180
176
168
140
104
68
32
0
-28
-48
-64
-80
-92
-104
-124
-132
-136
-132
-128
-132
-136
-136
-136
-136
-128
-128
-132
-132
-132
-132
-136
-140
-136
-132
-132
-136
-132
-132
-136
-132
-128
-120
-100
-80
-64
-48
-32
-16
-4
4
12
20
32
40
44
52
56
56
60
60
64
68
68
64
56
52
48
36
24
20
12
4
-4
-20
-32
-48
-68
-80
-96
-116
-128
-128
-128
-132
-132
-132
-132
-132
-132
-132
-136
-132
-128
-128
-128
-132
-136
-136
-132
-128
-128
-124
-128
-132
-132
-128
-128
-128
-128
-128
-128
-132
-128
-128
-128
-132
-128
-124
-128
-128
-140
-192
-264
-328
-380
-448
-508
-456
-300
-144
0
148
300
452
600
752
908
1056
1204
1368
1488
1424
1248
1088
924
760
592
424
264
100
-60
-216
-388
-556
-592
-512
-432
-356
-280
-204
-140
-128
-132
-132
-132
-132
-132
-128
-128
-132
-128
-132
-136
-132
-128
-128
-128
-124
-128
-128
-124
-124
-124
-124
-116
-116
-116
-112
-104
-104
-100
-100
-92
-88
-88
-88
-84
-80
-76
-76
-72
-64
-60
-56
-48
-48
-44
-40
-32
-24
-20
-16
-12
-8
-4
0
4
16
28
36
40
44
52
56
60
68
76
92
108
120
128
152
168
176
188
200
216
224
232
244
240
232
228
220
208
200
200
196
192
188
184
184
172
140
104
72
40
4
-28
-52
-64
-76
-92
-108
-120
-128
-132
-136
-136
-132
-132
-136
-132
-132
-132
-132
-132
-132
-128
-128
-132
-136
-132
-132
-132
-128
-132
-132
-128
-132
-132
-116
-100
-80
-60
-44
-32
-16
0
4
16
24
32
40
48
52
56
64
68
60
60
60
64
64
56
52
48
36
28
24
12
8
0
-20
-32
-48
-64
-76
-96
-112
-128
-132
-128
-128
-132
-132
-132
-132
-132
-132
-132
-128
-128
-128
-128
-124
-128
-128
-124
-128
-128
-124
-124
-128
-128
-128
-132
-128
-128
-128
-128
-132
-128
-128
-128
-128
-128
-128
-128
-124
-136
-192
-264
-324
-384
-448
-508
-456
-304
-148
0
152
304
456
608
760
912
1060
1208
1376
1488
1416
1244
1084
924
756
592
428
264
96
-64
-220
-392
-556
-588
-508
-428
-356
-280
-200
-140
-128
-132
-132
-136
-136
-132
-132-128
-128
-128
-132
-132
-132
-132
-128
-124
-124
-124
-128
-128
-124
-120
-116
-116
-112
-108
-108
-112
-108
-100
-96
-96
-88
-84
-88
-84
-76
-72
-68
-68
-60
-56
-56
-48
-44
-40
-32
-28
-28
-20
-12
-12
-8
0
4
8
20
24
32
40
44
48
52
60
68
76
88
104
116
132
144
160
176
192
204
216
224
236
240
240
232
220
216
212
204
196
188
184
188
184
180
168
140
104
68
32
4
-28
-52
-64
-76
-92
-108
-124
-132
-136
-136
-136
-136
-136
-136
-136
-132
-132
-132
-132
-132
-132
-132
-136
-132
-128
-128
-128
-128
-128
-128
-132
-132
-124
-112
-96
-80
-64
-48
-32
-20
-8
0
12
24
32
40
44
52
56
64
64
64
60
60
60
56
56
56
48
36
28
20
12
0
0
-16
-36
-48
-64
-84
-100
-116
-128
-132
-128
-128
-128
-128
-128
-132
-136
-132
-132
-132
-132
-132
-128
-132
-136
-132
-128
-128
-132
-132
-128
-128
-128
-128
-132
-128
-124
-124
-128
-128
-128
-132
-128
-128
-128
-128
-128
-124
-136
-192
-260
-324
-388
-452
-512
-452
-296
-140
4
152
304
456
608
760
912
1068
1216
1376
1488
1416
1240
1076
912
748
588
420
256
92
-68
-228
-400
-560
-588
-508
-428
-356
-280
-200
-140
-128
-136
-136
-132
-132
-128
-128
-132
-132
-128
-132
-136
-132
-128
-128
-128
-128
-124
-124
-128
-124
-124
-120
-120
-116
-112
-108
-108
-112
-108
-100
-96
-92
-92
-88
-80
-80
-80
-76
-72
-64
-56
-56
-52
-44
-40
-32
-24
-28
-20
-12
-12
-8
0
0
8
20
24
32
40
40
48
56
60
64
80
92
112
120
128
144
164
180
196
208
216
228
240
248
240
236
228
216
212
200
200
196
188
188
184
184
172
140
100
68
40
4
-24
-48
-60
-76
-92
-108
-128
-132
-132
-128
-128
-128
-128
-132
-132
-136
-132
-132
-128
-128
-132
-132
-132
-132
-132
-132
-132
-132
-128
-128
-128
-136
-128
-112
-96
-80
-64
-48
-32
-16
0
12
16
24
32
36
44
56
60
64
64
64
64
64
64
68
64
56
48
36
28
20
12
0
-4
-16
-32
-52
-64
-76
-100
-116
-128
-132
-132
-128
-128
-136
-128
-124
-128
-128
-128
-128
-128
-128
-124
-128
-132
-132
-128
-124
-128
-128
-128
-128
-132
-132
-124
-124
-128
-128
-128
-124
-124
-132
-128
-128
-128
-128
-124
-120
-140
-192
-256
-320
-384
-456
-512
-448
-292
-136
8
160
316
468
620
768
920
1068
1220
1384
1492
1416
1244
1076
912
748
584
416
252
92
-72
-232
-404
-560
-588
-508
-432
-356
-276
-192
-136
-132
-136
-132
-132
-132
-132
-132-132
-128
-132
-132
-132
-132
-128
-124
-128
-128
-120
-124
-128
-120
-120
-120
-120
-112
-108
-112
-108
-108
-104
-96
-96
-92
-88
-84
-80
-80
-80
-72
-64
-60
-60
-52
-48
-40
-40
-32
-32
-28
-20
-16
-12
-8
-4
0
8
16
28
36
40
44
48
52
64
68
76
92
104
120
132
148
164
176
188
200
216
228
236
244
240
232
224
220
212
204
200
196
192
188
184
180
168
140
104
68
36
4
-28
-48
-60
-76
-92
-104
-120
-128
-128
-128
-128
-128
-128
-128
-132
-132
-128
-128
-124
-124
-124
-128
-132
-132
-128
-128
-128
-128
-132
-132
-128
-128
-128
-116
-96
-80
-64
-48
-32
-16
0
8
12
24
32
36
44
52
60
64
64
60
64
64
60
60
60
52
44
40
32
20
12
4
0
-16
-36
-48
-64
-80
-100
-116
-128
-128
-132
-128
-124
-128
-128
-124
-128
-128
-128
-124
-124
-128
-124
-124
-132
-132
-128
-128
-128
-128
-124
-128
-132
-128
-132
-132
-128
-128
-128
-128
-128
-128
-128
-128
-128
-124
-124
-120
-140
-196
-264
-324
-380
-452
-508
-444
-288
-136
8
160
316
468
616
772
924
1072
1220
1384
1488
1408
1232
1068
908
744
580
416
248
88
-68
-232
-408
-568
-588
-504
-428
-348
-272
-196
-140
-132
-132
-132
-132
-132
-132
-132
-128
-132
-132
-132
-136
-132
-132
-128
-128
-124
-128
-124
-120
-120
-120
-120
-116
-116
-112
-112
-112
-112
-104
-96
-96
-92
-88
-84
-88
-84
-76
-72
-68
-64
-60
-52
-52
-44
-36
-32
-28
-28
-20
-16
-12
-8
0
0
8
20
28
32
40
44
48
52
60
68
76
88
104
120
136
148
164
180
188
204
212
224
240
244
240
232
224
220
212
204
200
192
188
188
184
180
168
136
100
64
36
4
-28
-52
-64
-80
-96
-108
-124
-136
-136
-132
-132
-132
-132
-132
-136
-136
-136
-136
-132
-128
-128
-132
-132
-132
-132
-132
-132
-136
-136
-132
-132
-128
-124
-112
-96
-76
-64
-48
-32
-16
0
8
12
20
32
36
44
56
60
60
60
60
64
60
60
56
56
52
44
36
24
20
12
4
-4
-20
-36
-48
-68
-84
-100
-116
-128
-128
-132
-132
-132
-128
-128
-136
-132
-132
-132
-136
-132
-128
-132
-136
-128
-128
-132
-128
-128
-128
-128
-132
-132
-132
-132
-132
-132
-132
-128
-128
-132
-132
-132
-128
-124
-128
-128
-124
-140
-196
-260
-328
-384
-452
-508
-444
-284
-128
12
164
320
472
620
776
924
1072
1220
1388
1492
1412
1232
1064
904
736
572
408
248
80
-80
-240
-412
-568
-584
-500
-424
-348
-268
-188
-136
-128
-132
-132
-136
-136
-128
-128-132
-132
-128
-132
-132
-128
-124
-124
-124
-124
-124
-120
-120
-120
-120
-120
-116
-116
-112
-112
-108
-104
-100
-100
-96
-92
-88
-88
-88
-84
-80
-72
-72
-64
-56
-56
-48
-40
-36
-32
-32
-28
-16
-12
-12
-8
0
4
8
20
28
32
40
44
48
56
64
68
76
92
104
116
132
152
164
180
192
204
216
224
236
244
240
232
224
220
208
200
196
192
188
188
184
180
172
140
100
64
32
4
-28
-52
-64
-80
-92
-108
-124
-132
-132
-132
-132
-128
-132
-136
-136
-132
-128
-128
-128
-128
-132
-132
-128
-132
-132
-128
-124
-128
-136
-132
-132
-132
-128
-112
-92
-80
-64
-48
-32
-12
0
8
12
24
32
36
44
56
60
60
60
64
64
64
56
60
60
52
40
36
28
20
12
4
-8
-20
-36
-52
-64
-80
-100
-116
-128
-132
-128
-128
-128
-128
-132
-136
-132
-128
-132
-128
-124
-132
-136
-132
-128
-132
-132
-128
-132
-128
-124
-128
-132
-128
-132
-132
-128
-124
-128
-132
-132
-132
-132
-132
-132
-128
-132
-128
-140
-200
-268
-328
-388
-456
-512
-440
-276
-124
20
172
324
476
628
776
924
1072
1220
1388
1492
1404
1228
1064
900
732
572
404
236
76
-80
-244
-416
-568
-584
-500
-424
-352
-272
-188
-140
-136
-136
-136
-136
-132
-136
-136
-132
-132
-136
-136
-132
-132
-128
-128
-132
-128
-124
-124
-128
-132
-128
-120
-116
-116
-116
-112
-112
-108
-104
-100
-92
-88
-92
-88
-84
-84
-80
-76
-72
-64
-60
-60
-52
-48
-44
-40
-36
-28
-20
-16
-16
-8
0
0
4
12
24
32
36
40
44
52
60
64
72
92
104
116
132
148
164
180
192
204
216
224
240
244
236
232
228
216
204
200
196
192
188
188
184
180
168
140
100
64
32
0
-32
-52
-60
-76
-96
-108
-124
-132
-132
-132
-132
-132
-132
-132
-136
-136
-132
-132
-132
-136
-136
-132
-132
-136
-128
-128
-132
-132
-136
-136
-136
-132
-128
-116
-96
-80
-60
-44
-32
-16
0
4
12
20
28
36
40
52
56
60
64
64
64
60
60
60
64
56
40
36
32
24
12
4
-4
-20
-32
-52
-68
-80
-100
-116
-128
-132
-132
-132
-132
-128
-128
-132
-128
-132
-132
-128
-128
-128
-132
-132
-132
-132
-132
-132
-128
-128
-128
-132
-132
-128
-128
-124
-128
-128
-128
-132
-128
-128
-132
-128
-124
-128
-128
-124
-148
-204
-268
-328
-388
-456
-512
-436
-276
-128
20
172
324
476
628
780
936
1084
1228
1392
1488
1400
1220
1060
900
732
568
404
240
76
-84
-244
-420
-572
-580
-496
-420
-344
-268
-192
-136
-128
-132
-132
-136
-136
-132
-128-132
-132
-132
-128
-128
-128
-128
-124
-124
-128
-128
-124
-124
-120
-120
-116
-116
-112
-112
-112
-108
-108
-104
-96
-96
-92
-88
-88
-84
-80
-76
-76
-72
-64
-60
-60
-52
-44
-40
-36
-28
-24
-16
-12
-8
-8
-4
0
12
20
24
36
44
48
52
56
60
68
80
92
104
116
132
148
164
180
196
212
220
228
236
248
244
232
224
216
204
200
196
192
188
184
184
180
168
132
96
64
28
0
-32
-52
-64
-76
-96
-108
-120
-132
-136
-136
-132
-128
-132
-132
-132
-132
-132
-128
-132
-128
-128
-132
-136
-132
-132
-132
-132
-132
-128
-132
-132
-128
-124
-112
-96
-80
-64
-44
-28
-12
0
8
12
20
32
36
40
56
60
56
56
60
60
60
60
56
56
52
44
36
32
24
8
0
-4
-20
-36
-52
-64
-80
-104
-124
-136
-132
-132
-132
-128
-128
-132
-132
-128
-128
-128
-128
-132
-128
-128
-128
-128
-132
-132
-128
-124
-128
-128
-128
-128
-128
-132
-128
-128
-124
-128
-128
-128
-128
-128
-124
-128
-128
-124
-120
-144
-200
-268
-332
-388
-460
-512
-436
-272
-120
24
176
328
480
632
780
936
1088
1236
1396
1488
1392
1216
1056
892
724
564
400
232
68
-88
-248
-420
-568
-580
-496
-420
-344
-268
-188
-136
-128
-132
-132
-132
-136
-136
-132
-132
-136
-132
-132
-132
-132
-132
-132
-128
-128
-128
-128
-120
-120
-116
-116
-120
-116
-112
-108
-112
-108
-104
-100
-96
-88
-88
-88
-88
-84
-76
-76
-68
-64
-64
-56
-52
-48
-44
-36
-32
-24
-20
-16
-12
-12
-4
4
8
12
20
28
36
40
44
52
60
68
76
92
104
120
132
152
164
176
192
204
212
224
236
244
240
232
224
216
212
204
192
192
192
184
184
184
168
136
96
64
28
0
-32
-52
-68
-84
-96
-108
-124
-136
-136
-128
-124
-132
-140
-136
-136
-136
-132
-128
-132
-132
-128
-132
-132
-132
-132
-132
-132
-128
-132
-132
-132
-136
-128
-108
-92
-76
-60
-44
-32
-12
0
8
16
28
32
40
48
56
64
64
60
64
68
60
60
60
60
48
40
36
24
16
8
0
-4
-20
-36
-52
-68
-84
-104
-124
-132
-132
-132
-132
-128
-132
-136
-136
-132
-132
-128
-128
-128
-128
-128
-128
-132
-136
-128
-128
-132
-128
-128
-136
-136
-132
-128
-128
-128
-128
-128
-124
-128
-132
-132
-132
-128
-128
-128
-120
-140
-204
-268
-332
-392
-460
-508
-428
-268
-120
24
176
332
488
640
792
940
1088
1236
1400
1492
1392
1216
1052
888
724
556
392
232
64
-92
-248
-424
-576
-576
-492
-420
-344
-264
-188
-136
-128
-132
-132
-132
-136
-132
-128-128
-128
-132
-132
-132
-136
-132
-128
-128
-128
-128
-124
-124
-120
-120
-124
-116
-112
-116
-112
-108
-104
-100
-100
-96
-88
-88
-88
-84
-76
-80
-72
-68
-60
-56
-56
-52
-44
-40
-32
-28
-24
-20
-16
-12
-4
-4
0
12
20
28
32
36
44
44
52
64
72
76
88
104
116
132
152
168
180
192
204
216
228
244
248
240
232
224
216
212
200
196
192
188
184
184
180
168
136
100
64
32
0
-36
-56
-68
-80
-96
-112
-124
-132
-132
-132
-132
-132
-128
-132
-132
-132
-132
-132
-128
-128
-128
-132
-128
-132
-132
-128
-124
-128
-132
-128
-128
-128
-128
-112
-92
-76
-60
-44
-24
-8
0
8
20
24
36
40
52
60
60
60
60
64
64
68
64
60
60
52
48
40
28
20
12
4
0
-20
-36
-52
-68
-88
-100
-120
-132
-128
-128
-128
-124
-124
-128
-132
-132
-128
-128
-128
-124
-124
-128
-128
-128
-128
-124
-128
-128
-128
-128
-128
-128
-132
-136
-132
-124
-128
-128
-124
-128
-132
-128
-124
-128
-128
-124
-124
-144
-204
-272
-336
-392
-460
-508
-428
-268
-112
32
180
336
492
644
792
940
1092
1236
1400
1492
1388
1208
1048
884
720
556
388
224
60
-100
-256
-432
-580
-580
-496
-420
-340
-260
-184
-136
-132
-132
-132
-136
-132
-132
-128
-128
-132
-132
-128
-128
-132
-132
-128
-128
-128
-128
-128
-132
-128
-120
-120
-120
-120
-116
-112
-108
-104
-104
-100
-100
-96
-92
-88
-84
-80
-80
-76
-68
-64
-60
-56
-56
-48
-44
-36
-32
-24
-20
-16
-12
-8
0
8
12
16
24
32
36
44
48
56
60
64
76
88
104
120
136
148
164
184
192
200
212
224
236
240
240
232
224
216
208
200
196
192
184
184
184
180
164
132
96
64
28
-4
-32
-52
-68
-84
-96
-112
-124
-132
-132
-132
-132
-132
-132
-132
-132
-128
-132
-136
-136
-132
-132
-136
-136
-132
-132
-132
-132
-132
-132
-132
-132
-136
-128
-112
-92
-72
-60
-44
-28
-12
0
8
16
24
32
40
48
56
60
60
68
68
64
60
60
64
60
48
40
36
32
20
8
4
0
-20
-36
-56
-68
-84
-100
-116
-128
-132
-128
-132
-132
-128
-132
-136
-136
-132
-128
-124
-128
-128
-128
-128
-132
-132
-128
-128
-128
-128
-128
-132
-128
-128
-128
-132
-128
-128
-132
-132
-132
-132
-132
-132
-128
-128
-128
-124
-148
-208
-272
-336
-392
-464
-508
-420
-260
-112
32
188
340
492
640
792
948
1096
1244
1408
1492
1384
1204
1048
884
712
552
388
224
56
-96
-256
-436
-576
-572
-484
-412
-336
-256
-180
-136
-128
-128
-128
-132
-136
-132
-128-128
-124
-128
-128
-132
-132
-124
-120
-120
-124
-128
-128
-124
-120
-112
-116
-116
-112
-116
-112
-108
-104
-100
-100
-96
-92
-84
-80
-80
-80
-76
-68
-64
-60
-56
-56
-52
-40
-32
-36
-28
-24
-16
-16
-12
-4
0
4
12
20
28
32
40
48
52
56
64
72
84
92
108
120
136
156
172
184
200
204
216
228
236
244
240
236
232
224
212
204
196
192
192
188
184
180
168
132
96
68
32
0
-28
-52
-64
-80
-92
-108
-124
-132
-128
-132
-132
-128
-132
-132
-128
-128
-132
-128
-124
-128
-132
-132
-132
-128
-128
-128
-128
-128
-132
-132
-128
-132
-124
-108
-92
-76
-60
-48
-32
-12
0
4
16
24
32
44
44
52
64
64
64
60
64
68
64
60
56
52
44
40
32
16
8
4
-8
-20
-36
-52
-68
-84
-104
-120
-128
-128
-128
-128
-128
-128
-128
-128
-128
-128
-128
-132
-132
-132
-128
-124
-124
-128
-128
-132
-128
-128
-132
-128
-128
-132
-132
-128
-132
-132
-128
-128
-132
-128
-132
-128
-128
-136
-132
-128
-148
-212
-276
-340
-400
-468
-508
-420
-260
-112
36
192
344
492
648
796
948
1096
1244
1412
1492
1376
1200
1040
876
708
544
380
216
52
-108
-268
-444
-584
-576
-488
-416
-340
-264
-184
-136
-136
-136
-132
-132
-132
-132
-132
-132
-132
-132
-132
-136
-136
-132
-128
-132
-128
-128
-128
-128
-124
-124
-120
-116
-116
-116
-112
-112
-104
-104
-100
-92
-92
-92
-92
-88
-80
-76
-76
-76
-64
-60
-52
-44
-44
-40
-32
-32
-28
-20
-16
-16
-12
-4
0
8
12
24
32
36
40
48
56
60
68
76
92
108
120
132
152
168
180
188
200
212
224
236
240
240
232
220
216
208
196
192
188
188
188
180
180
168
132
92
60
28
-4
-32
-48
-68
-80
-96
-112
-124
-136
-132
-128
-132
-136
-132
-132
-136
-136
-136
-132
-132
-136
-136
-136
-136
-136
-136
-136
-132
-128
-136
-136
-132
-132
-128
-108
-88
-76
-60
-44
-28
-16
-4
4
12
24
32
40
40
52
60
60
60
60
64
64
56
56
60
56
48
36
24
16
8
0
-4
-24
-44
-56
-68
-84
-100
-120
-132
-132
-128
-128
-128
-128
-132
-132
-132
-132
-128
-128
-128
-132
-132
-132
-132
-132
-132
-132
-128
-128
-128
-132
-132
-132
-132
-128
-132
-128
-124
-128
-128
-132
-128
-132
-128
-128
-132
-124
-152
-212
-276
-336
-396
-472
-516
-420
-256
-108
40
192
348
500
652
800
952
1104
1252
1416
1496
1380
1200
1036
872
708
540
380
216
48
-108
-268
-444
-584
-576
-488
-408
-336
-260
-180
-132
-132
-132
-132
-132
-136
-132
-128-128
-132
-136
-132
-132
-128
-128
-128
-132
-132
-128
-128
-124
-124
-120
-116
-116
-112
-116
-116
-112
-108
-104
-100
-96
-88
-88
-88
-84
-80
-76
-72
-68
-60
-56
-52
-48
-48
-44
-36
-32
-28
-20
-16
-12
-4
0
4
8
16
24
32
40
40
44
56
60
68
76
88
108
120
132
152
172
184
196
200
216
228
240
240
236
232
224
216
208
196
192
192
188
188
180
180
164
128
92
60
32
0
-36
-52
-64
-80
-92
-108
-124
-132
-132
-132
-132
-136
-136
-136
-136
-132
-136
-136
-132
-132
-132
-132
-132
-132
-132
-132
-132
-132
-132
-132
-132
-132
-124
-112
-96
-76
-60
-48
-32
-16
0
12
20
28
32
40
48
52
60
64
64
64
60
60
60
56
52
48
40
32
28
20
12
0
-8
-24
-36
-52
-68
-84
-104
-120
-132
-132
-132
-132
-128
-128
-132
-132
-128
-128
-128
-132
-132
-128
-128
-124
-128
-132
-132
-128
-128
-124
-128
-132
-132
-128
-128
-128
-128
-124
-128
-128
-128
-128
-128
-128
-124
-124
-124
-124
-152
-208
-276
-336
-396
-468
-508
-416
-252
-100
48
200
352
500
656
808
956
1104
1252
1420
1488
1372
1200
1040
868
700
540
376
212
48
-112
-272
-444
-580
-572
-480
-404
-332
-260
-172
-124
-128
-132
-136
-132
-132
-136
-132
-132
-132
-128
-128
-132
-132
-128
-124
-124
-124
-124
-124
-120
-120
-116
-116
-116
-112
-112
-108
-104
-108
-100
-92
-92
-88
-88
-84
-80
-76
-76
-72
-68
-64
-60
-52
-44
-40
-40
-32
-28
-20
-16
-16
-16
-8
0
0
8
16
24
32
40
44
48
56
60
68
76
88
108
120
136
156
172
184
192
204
216
232
240
240
236
232
224
212
208
200
192
188
184
176
176
180
160
124
92
56
24
-4
-36
-56
-68
-84
-92
-108
-124
-128
-132
-132
-132
-136
-132
-132
-136
-132
-132
-132
-128
-132
-136
-136
-132
-132
-132
-136
-136
-136
-140
-136
-132
-136
-128
-112
-92
-76
-64
-48
-32
-16
0
8
12
20
32
36
44
52
60
60
60
60
56
60
64
60
52
48
44
32
24
16
8
0
-8
-24
-48
-64
-72
-88
-108
-128
-136
-132
-136
-136
-132
-132
-132
-136
-132
-132
-128
-132
-132
-132
-132
-132
-136
-132
-128
-128
-128
-128
-132
-128
-128
-132
-132
-128
-128
-128
-132
-128
-128
-128
-132
-128
-128
-128
-132
-128
-156
-216
-280
-340
-400
-476
-512
-412
-252
-100
48
196
352
504
652
804
960
1104
1252
1420
1488
1368
1192
1032
864
700
536
368
204
44
-116
-280
-452
-580
-568
-484
-408
-332
-256
-176
-132
-136
-136
-136
-136
-136
-132
-128-128
-128
-132
-136
-132
-132
-132
-128
-128
-128
-128
-132
-132
-124
-120
-120
-112
-116
-124
-120
-112
-112
-104
-104
-100
-96
-92
-92
-88
-84
-76
-72
-68
-64
-64
-60
-56
-48
-40
-32
-32
-28
-24
-24
-16
-8
-4
0
8
20
24
28
32
44
52
52
56
64
76
92
104
120
136
152
164
176
192
204
212
228
240
244
236
228
220
216
208
192
192
192
184
180
176
172
156
124
88
56
28
-4
-36
-52
-68
-88
-104
-116
-132
-136
-128
-136
-140
-136
-136
-136
-136
-136
-132
-132
-132
-132
-132
-132
-136
-136
-132
-132
-132
-128
-132
-136
-136
-136
-128
-108
-92
-80
-64
-48
-32
-12
0
4
12
20
28
36
44
56
60
60
60
64
64
60
60
64
60
48
40
36
24
16
12
0
-12
-24
-40
-56
-72
-84
-104
-124
-132
-132
-132
-128
-132
-132
-132
-128
-132
-132
-132
-128
-128
-132
-132
-132
-128
-128
-132
-132
-128
-128
-132
-132
-128
-128
-128
-124
-128
-132
-132
-128
-128
-132
-132
-132
-128
-128
-128
-128
-152
-216
-284
-344
-404
-476
-508
-412
-244
-92
48
200
352
508
656
808
960
1112
1264
1424
1484
1364
1184
1024
860
696
528
364
200
36
-120
-280
-456
-588
-572
-484
-404
-328
-252
-176
-136
-140
-140
-136
-136
-132
-132
-132
-128
-128
-136
-136
-136
-128
-124
-128
-132
-128
-128
-132
-128
-124
-120
-120
-116
-112
-112
-116
-112
-108
-104
-96
-92
-92
-96
-96
-92
-84
-80
-76
-68
-64
-64
-60
-48
-44
-44
-36
-28
-24
-20
-20
-12
-8
0
4
12
20
28
32
36
40
48
56
64
72
84
96
108
120
136
156
172
184
196
204
212
228
244
244
236
232
224
216
208
196
192
188
188
188
180
180
160
124
92
56
24
-8
-36
-60
-76
-84
-100
-116
-132
-136
-136
-136
-132
-132
-136
-136
-136
-132
-132
-132
-132
-132
-132
-132
-136
-132
-132
-132
-128
-132
-132
-128
-132
-132
-124
-108
-92
-76
-60
-44
-28
-12
0
8
12
20
28
40
44
52
64
60
60
64
68
60
56
56
56
48
40
36
28
16
8
4
-8
-24
-36
-52
-68
-92
-112
-124
-136
-136
-132
-128
-124
-128
-136
-132
-132
-132
-128
-128
-132
-132
-132
-132
-128
-132
-132
-128
-128
-132
-132
-128
-132
-132
-128
-132
-128
-128
-132
-132
-132
-132
-132
-128
-128
-128
-128
-128
-160
-220
-280
-344
-404
-476
-508
-408
-240
-88
52
208
360
512
664
812
964
1112
1264
1428
1492
1364
1184
1024
860
692
528
360
196
40
-120
-284
-460
-588
-568
-480
-404
-332
-252
-172
-128
-132
-136
-136
-132
-132
-132
-128-128
-136
-136
-136
-132
-132
-128
-124
-120
-124
-124
-120
-120
-120
-120
-120
-116
-116
-116
-120
-112
-104
-100
-100
-96
-88
-88
-84
-84
-84
-80
-72
-68
-64
-56
-52
-48
-44
-40
-32
-28
-24
-24
-16
-12
-8
0
4
12
24
28
36
44
48
48
56
60
72
84
96
112
128
140
156
172
184
200
204
216
232
244
244
236
228
224
212
204
196
192
192
188
184
184
184
160
124
92
56
24
-8
-40
-56
-68
-84
-96
-112
-124
-132
-132
-132
-132
-132
-132
-128
-132
-136
-132
-132
-132
-136
-140
-136
-136
-132
-132
-132
-132
-132
-132
-136
-136
-136
-128
-108
-92
-76
-60
-44
-28
-12
0
8
16
24
32
40
48
52
52
56
60
60
60
56
56
60
56
48
44
32
20
16
8
0
-12
-24
-40
-60
-72
-92
-108
-124
-132
-132
-128
-128
-128
-128
-132
-132
-136
-132
-128
-128
-132
-136
-132
-128
-128
-128
-124
-124
-128
-132
-128
-124
-128
-132
-128
-128
-128
-128
-128
-128
-128
-132
-132
-128
-128
-132
-124
-128
-156
-216
-284
-344
-400
-472
-504
-400
-236
-84
60
216
364
516
668
816
964
1116
1268
1432
1488
1360
1180
1024
860
692
532
368
200
36
-120
-284
-460
-588
-568
-476
-400
-328
-248
-168
-132
-132
-132
-132
-132
-132
-128
-128
-132
-132
-132
-128
-128
-132
-132
-128
-128
-128
-128
-128
-124
-124
-120
-116
-116
-116
-108
-108
-112
-104
-100
-96
-92
-92
-92
-88
-84
-80
-72
-68
-64
-64
-60
-56
-52
-48
-40
-32
-28
-24
-20
-16
-12
-4
0
4
12
20
28
36
40
44
52
56
64
72
80
100
112
124
140
160
172
184
196
208
224
232
244
248
240
232
220
216
212
200
192
192
188
184
180
180
160
124
88
56
24
-4
-40
-56
-72
-84
-96
-112
-128
-136
-132
-128
-132
-136
-136
-132
-132
-132
-128
-132
-132
-132
-132
-132
-136
-132
-128
-132
-132
-128
-128
-132
-136
-132
-124
-108
-88
-72
-60
-44
-24
-8
0
8
20
28
32
44
48
52
60
60
60
64
64
60
60
56
56
56
44
32
24
16
16
4
-12
-24
-36
-56
-72
-88
-108
-124
-132
-136
-132
-132
-136
-128
-128
-132
-132
-132
-132
-132
-128
-128
-132
-132
-132
-132
-128
-128
-132
-128
-132
-136
-132
-132
-128
-128
-124
-128
-128
-128
-132
-136
-132
-128
-128
-128
-124
-128
-160
-224
-284
-348
-408
-480
-504
-396
-236
-84
60
212
364
520
672
820
972
1120
1268
1436
1484
1352
1176
1016
848
688
520
352
192
28
-132
-292
-468
-592
-564
-476
-400
-324
-248
-168
-132
-136
-136
-136
-132
-132
-136
-132-128
-132
-136
-136
-132
-132
-128
-128
-128
-128
-128
-128
-128
-124
-120
-116
-116
-112
-116
-116
-112
-108
-104
-96
-92
-92
-88
-88
-88
-84
-76
-72
-68
-64
-56
-56
-48
-44
-40
-32
-28
-24
-20
-16
-8
-8
0
4
12
24
24
36
44
48
48
52
60
68
80
96
108
124
140
156
176
188
196
208
216
228
240
248
240
232
220
216
208
204
200
196
188
184
184
180
160
124
92
60
24
-8
-36
-52
-68
-84
-100
-112
-124
-128
-132
-136
-132
-128
-128
-128
-136
-136
-132
-132
-132
-132
-128
-132
-132
-128
-128
-132
-128
-132
-132
-132
-132
-132
-120
-104
-96
-76
-56
-40
-24
-12
0
12
16
24
36
44
48
56
64
64
60
60
60
60
64
64
52
48
44
36
24
16
8
0
-4
-20
-36
-56
-72
-88
-108
-128
-136
-132
-128
-128
-132
-132
-132
-128
-132
-136
-132
-128
-128
-132
-132
-132
-128
-132
-132
-128
-128
-128
-128
-128
-128
-132
-128
-128
-132
-132
-128
-128
-128
-128
-128
-128
-132
-128
-124
-128
-164
-224
-280
-340
-408
-484
-504
-392
-232
-84
64
216
364
520
676
824
972
1120
1276
1440
1484
1348
1172
1012
844
680
516
352
184
24
-136
-296
-472
-592
-564
-476
-396
-324
-248
-168
-132
-136
-136
-136
-136
-132
-128
-128
-128
-132
-132
-132
-132
-136
-132
-128
-128
-128
-128
-128
-124
-120
-120
-120
-116
-116
-112
-112
-112
-108
-104
-96
-92
-92
-92
-84
-84
-80
-76
-72
-64
-64
-56
-48
-48
-48
-40
-32
-28
-20
-20
-12
-8
-4
0
4
12
20
28
32
36
44
52
60
64
72
80
96
112
124
136
152
172
184
192
204
216
228
240
244
236
232
224
216
208
200
196
192
188
184
184
184
164
128
88
56
24
-8
-36
-52
-68
-88
-96
-112
-128
-132
-132
-132
-132
-132
-136
-136
-140
-136
-136
-136
-132
-136
-136
-136
-136
-132
-132
-136
-136
-132
-128
-132
-128
-132
-124
-104
-88
-76
-56
-40
-24
-8
0
8
20
28
32
40
48
52
60
60
60
60
60
60
60
60
56
52
44
36
28
16
8
0
-12
-24
-36
-52
-72
-88
-104
-124
-136
-132
-128
-132
-128
-124
-128
-132
-128
-128
-128
-128
-128
-128
-128
-128
-128
-128
-128
-124
-128
-128
-128
-128
-132
-128
-124
-128
-128
-128
-128
-128
-128
-128
-128
-128
-124
-128
-128
-128
-156
-220
-288
-348
-408
-488
-504
-384
-224
-80
68
224
376
524
676
828
980
1128
1280
1440
1484
1344
1168
1008
844
680
516
348
184
24
-132
-296
-476
-592
-560
-468
-392
-320
-240
-168
-132
-132
-132
-132
-132
-132
-132
-132-136
-136
-132
-136
-136
-132
-128
-124
-124
-124
-124
-128
-124
-120
-120
-120
-120
-116
-116
-112
-108
-108
-104
-100
-92
-88
-88
-84
-84
-76
-72
-72
-68
-60
-56
-56
-52
-44
-36
-32
-24
-16
-16
-16
-8
-8
0
8
16
24
28
32
36
44
52
56
68
72
80
92
112
128
140
152
168
188
196
204
224
236
248
248
240
232
224
216
204
200
196
192
192
188
180
180
160
124
92
56
20
-8
-36
-52
-68
-80
-96
-116
-128
-132
-132
-132
-132
-132
-128
-132
-132
-128
-128
-132
-136
-132
-128
-136
-136
-136
-136
-128
-132
-132
-128
-132
-132
-128
-124
-108
-88
-68
-52
-40
-28
-8
4
8
20
28
36
44
56
60
64
64
64
64
64
64
64
60
56
52
40
32
24
16
8
0
-8
-28
-44
-56
-68
-88
-108
-124
-132
-128
-128
-132
-128
-124
-128
-128
-132
-132
-128
-124
-120
-124
-128
-132
-128
-128
-128
-128
-128
-128
-128
-128
-124
-128
-128
-128
-128
-128
-124
-124
-124
-124
-128
-128
-128
-124
-124
-124
-160
-224
-284
-348
-408
-480
-500
-384
-220
-72
76
228
372
528
684
828
980
1128
1284
1448
1484
1344
1168
1008
840
676
508
344
184
24
-140
-304
-480
-588
-552
-468
-392
-320
-240
-164
-128
-132
-132
-136
-132
-132
-132
-128
-128
-132
-132
-132
-132
-128
-128
-124
-124
-128
-124
-124
-128
-124
-116
-116
-116
-112
-112
-108
-104
-100
-100
-96
-92
-88
-88
-84
-80
-80
-72
-68
-64
-60
-56
-52
-48
-44
-36
-32
-24
-16
-16
-12
-8
0
0
4
12
24
32
36
40
52
52
60
68
72
80
96
112
128
140
156
168
180
196
212
220
232
244
244
236
228
224
212
208
200
192
196
192
180
176
180
156
120
88
56
20
-8
-36
-48
-68
-84
-96
-112
-124
-132
-132
-132
-132
-132
-132
-128
-132
-132
-128
-132
-128
-128
-132
-136
-132
-128
-124
-124
-124
-128
-132
-132
-136
-136
-120
-108
-92
-72
-56
-40
-24
-4
0
12
20
28
36
40
52
60
60
60
60
60
64
60
56
60
56
48
44
40
28
16
8
0
-8
-20
-40
-60
-72
-92
-108
-124
-136
-132
-136
-136
-132
-132
-136
-136
-128
-132
-136
-132
-132
-132
-132
-132
-132
-132
-132
-132
-128
-128
-128
-128
-128
-132
-128
-132
-128
-124
-128
-132
-132
-128
-128
-128
-132
-128
-124
-128
-160
-224
-292
-352
-408
-488
-504
-384
-220
-72
76
228
380
528
684
836
988
1136
1288
1448
1480
1340
1168
1004
832
668
508
344
180
16
-144
-304
-480
-592
-556
-468
-392
-316
-236
-160
-128
-132
-136
-132
-128
-128
-132
-132-132
-132
-132
-128
-128
-128
-128
-128
-128
-124
-120
-124
-124
-120
-116
-112
-112
-116
-116
-108
-108
-104
-96
-96
-96
-92
-88
-84
-84
-80
-76
-68
-64
-64
-60
-52
-44
-40
-40
-32
-28
-24
-16
-12
-12
-8
0
8
16
20
28
32
40
44
52
60
68
72
80
96
112
120
140
160
176
184
200
212
220
232
244
248
244
232
224
220
208
196
196
192
188
184
180
176
156
120
88
56
24
-8
-40
-52
-64
-84
-96
-112
-128
-132
-132
-132
-132
-132
-132
-132
-136
-136
-132
-132
-132
-132
-132
-128
-132
-132
-128
-132
-128
-128
-132
-136
-136
-128
-116
-100
-84
-72
-56
-36
-24
-8
0
8
16
28
40
44
52
60
64
60
64
60
60
60
60
64
60
52
40
28
24
16
12
0
-8
-24
-40
-60
-76
-92
-104
-120
-128
-128
-128
-132
-128
-128
-132
-132
-128
-128
-128
-124
-124
-128
-136
-136
-132
-128
-128
-132
-128
-128
-132
-128
-128
-128
-128
-128
-128
-128
-128
-128
-132
-132
-132
-132
-128
-128
-128
-132
-164
-224
-292
-352
-416
-492
-504
-384
-216
-68
80
232
384
540
688
836
992
1136
1292
1448
1476
1336
1160
1000
832
668
504
340
176
12
-144
-304
-484
-596
-556
-468
-396
-320
-240
-160
-128
-136
-136
-136
-140
-136
-132
-132
-128
-128
-132
-136
-136
-132
-128
-128
-128
-128
-128
-128
-124
-120
-120
-116
-112
-108
-112
-112
-112
-104
-100
-96
-96
-96
-88
-84
-80
-76
-72
-68
-64
-64
-56
-48
-48
-40
-36
-32
-24
-20
-16
-16
-8
0
0
8
16
24
28
36
44
48
52
60
64
72
84
100
112
124
140
160
176
184
192
208
220
232
240
248
244
232
220
216
208
200
196
196
188
184
180
180
156
120
84
52
24
-8
-40
-60
-72
-88
-104
-116
-128
-132
-132
-136
-132
-132
-132
-132
-132
-132
-128
-128
-132
-128
-128
-136
-136
-132
-132
-128
-128
-132
-132
-128
-132
-132
-120
-104
-88
-72
-60
-44
-24
-4
0
8
20
28
36
44
52
56
60
64
64
64
64
64
60
60
60
48
36
32
28
20
8
0
-8
-24
-44
-56
-72
-92
-108
-124
-128
-128
-128
-132
-132
-128
-128
-128
-128
-128
-128
-128
-128
-132
-132
-128
-132
-132
-128
-128
-128
-128
-124
-128
-128
-128
-128
-124
-120
-124
-128
-128
-128
-128
-128
-128
-124
-124
-128
-132
-164
-224
-296
-356
-416
-492
-500
-376
-216
-68
80
236
392
540
692
844
992
1140
1296
1452
1480
1332
1156
996
832
664
500
332
168
4
-148
-308
-488
-600
-556
-464
-388
-312
-232
-156
-124
-132
-136
-132
-132
-132
-128
-128-128
-128
-128
-132
-128
-124
-128
-128
-124
-128
-128
-124
-124
-124
-116
-116
-116
-116
-116
-112
-108
-100
-96
-92
-88
-88
-88
-84
-80
-80
-72
-68
-68
-64
-56
-52
-52
-44
-36
-32
-28
-20
-16
-12
-4
0
0
8
16
24
28
36
40
48
56
60
68
76
84
96
112
128
144
160
176
188
200
208
216
232
244
244
236
228
228
216
204
200
196
192
184
180
180
176
156
120
88
52
20
-8
-40
-56
-68
-88
-96
-112
-132
-136
-132
-132
-132
-136
-132
-136
-136
-132
-132
-136
-136
-136
-132
-132
-136
-132
-132
-132
-132
-128
-136
-136
-132
-132
-124
-104
-88
-72
-56
-40
-24
-8
0
8
20
28
36
40
52
60
60
60
60
60
64
64
60
60
56
44
36
32
24
16
8
0
-8
-24
-36
-52
-72
-92
-104
-120
-132
-132
-128
-128
-128
-128
-124
-128
-128
-128
-128
-124
-128
-132
-132
-132
-136
-132
-128
-128
-128
-128
-128
-132
-132
-128
-128
-128
-128
-132
-132
-132
-132
-128
-128
-128
-128
-124
-124
-128
-168
-228
-296
-356
-416
-488
-496
-372
-208
-60
88
236
388
544
696
844
996
1148
1300
1456
1472
1320
1148
992
824
656
496
332
168
8
-152
-312
-496
-600
-552
-464
-388
-312
-232
-156
-128
-132
-132
-136
-132
-132
-132
-128
-128
-132
-136
-136
-136
-132
-124
-124
-124
-124
-128
-124
-120
-120
-116
-116
-116
-112
-112
-116
-112
-100
-96
-96
-92
-88
-88
-84
-84
-84
-80
-72
-64
-60
-60
-52
-48
-40
-32
-28
-28
-20
-16
-12
-8
-4
0
8
12
24
32
32
40
44
52
60
68
72
80
96
116
124
136
160
176
184
200
212
224
236
248
244
232
224
216
212
204
196
196
196
188
184
184
180
156
120
84
52
20
-12
-40
-56
-76
-92
-100
-116
-124
-132
-136
-132
-132
-132
-136
-136
-136
-136
-136
-128
-128
-132
-128
-132
-132
-132
-132
-132
-132
-132
-132
-136
-132
-132
-124
-104
-84
-68
-56
-40
-24
-4
4
8
16
24
32
40
48
56
64
64
60
60
60
60
60
64
60
48
36
32
24
16
4
0
-12
-32
-44
-60
-76
-88
-104
-124
-132
-132
-128
-128
-128
-124
-128
-128
-128
-128
-128
-128
-128
-128
-132
-128
-128
-128
-128
-128
-124
-128
-128
-128
-132
-128
-128
-128
-128
-128
-128
-128
-128
-132
-128
-124
-128
-132
-128
-128
-164
-228
-292
-356
-420
-488
-492
-368
-204
-56
88
244
396
548
700
852
1004
1148
1304
1460
1472
1320
1152
992
820
652
492
328
164
0
-160
-324
-500
-596
-544
-460
-384
-308
-232
-160
-128
-128
-132
-132
-128
-132
-132
-128-132
-132
-128
-132
-132
-128
-128
-132
-128
-124
-124
-128
-124
-120
-120
-120
-116
-116
-108
-104
-108
-104
-100
-100
-96
-92
-88
-84
-80
-80
-80
-68
-68
-64
-60
-56
-48
-36
-32
-32
-28
-24
-20
-12
-12
-4
0
8
16
24
28
32
36
44
52
56
64
72
84
96
108
120
140
160
180
188
200
216
224
232
244
248
240
232
224
212
204
200
196
192
188
184
180
180
156
120
88
56
20
-16
-44
-56
-68
-88
-100
-112
-124
-128
-128
-128
-132
-132
-132
-132
-132
-132
-132
-128
-128
-132
-132
-132
-132
-128
-128
-124
-124
-128
-128
-132
-136
-132
-116
-104
-84
-68
-56
-40
-20
-4
0
8
20
28
40
48
52
60
64
60
60
60
64
64
60
60
56
48
40
32
24
16
12
0
-8
-28
-44
-56
-72
-92
-108
-124
-132
-128
-128
-128
-132
-132
-128
-132
-136
-132
-128
-132
-128
-128
-128
-124
-128
-132
-132
-124
-120
-124
-132
-124
-124
-128
-124
-124
-124
-124
-128
-128
-128
-128
-128
-124
-128
-128
-124
-128
-172
-236
-296
-360
-420
-492
-496
-364
-200
-52
92
248
400
548
700
856
1004
1148
1308
1460
1472
1320
1148
984
824
656
488
324
160
-4
-164
-324
-500
-600
-544
-456
-384
-308
-232
-160
-132
-136
-136
-136
-132
-128
-132
-132
-132
-128
-128
-132
-132
-128
-132
-124
-124
-132
-128
-124
-124
-120
-116
-116
-112
-112
-112
-112
-108
-104
-100
-96
-96
-88
-84
-84
-84
-80
-76
-72
-68
-56
-56
-56
-52
-48
-40
-32
-24
-20
-16
-16
-12
-4
4
12
20
24
28
32
40
48
52
60
64
68
84
100
116
124
140
160
176
188
196
208
220
236
244
240
232
228
224
216
204
196
192
188
188
180
176
176
156
116
80
48
16
-16
-44
-60
-72
-88
-100
-120
-132
-136
-132
-132
-128
-132
-132
-132
-132
-136
-136
-132
-128
-132
-136
-132
-132
-132
-132
-128
-128
-132
-132
-132
-132
-128
-120
-104
-84
-68
-56
-40
-20
-4
0
8
20
28
36
44
52
56
64
64
64
64
64
60
60
64
56
48
40
36
24
16
8
0
-8
-28
-44
-56
-76
-92
-108
-124
-132
-132
-136
-132
-128
-132
-132
-128
-128
-132
-132
-132
-128
-128
-128
-132
-128
-128
-128
-128
-128
-128
-128
-128
-132
-132
-132
-128
-128
-128
-128
-128
-124
-124
-128
-128
-128
-132
-128
-124
-168
-232
-296
-356
-420
-496
-492
-360
-200
-48
100
252
404
552
700
852
1004
1152
1308
1460
1468
1312
1144
976
812
648
484
320
156
-8
-168
-332
-504
-592
-544
-460
-384
-308
-228
-156
-132
-136
-132
-132
-132
-136
-132
-132-132
-136
-140
-132
-128
-132
-128
-124
-124
-128
-128
-124
-128
-124
-116
-116
-120
-116
-108
-108
-108
-104
-100
-100
-92
-88
-88
-88
-84
-80
-76
-72
-68
-64
-56
-52
-52
-44
-36
-32
-28
-24
-20
-16
-12
-4
0
8
16
20
28
36
40
48
52
56
64
72
84
92
108
124
140
160
176
184
196
208
224
240
244
244
236
228
220
212
204
200
192
192
192
188
180
176
152
116
76
48
12
-20
-44
-56
-72
-88
-100
-112
-124
-132
-132
-136
-132
-132
-136
-136
-136
-132
-132
-132
-128
-132
-136
-136
-132
-128
-132
-132
-132
-132
-132
-132
-132
-128
-116
-100
-84
-68
-52
-36
-20
-4
4
12
24
32
36
44
48
64
64
56
64
64
64
64
64
60
56
48
40
32
20
12
8
0
-16
-28
-48
-60
-72
-96
-116
-128
-136
-128
-128
-128
-128
-128
-128
-128
-132
-132
-132
-128
-128
-132
-132
-132
-132
-128
-128
-128
-124
-124
-128
-128
-128
-132
-128
-128
-128
-128
-132
-128
-128
-132
-132
-128
-128
-124
-128
-136
-172
-236
-296
-356
-424
-496
-492
-360
-196
-48
100
248
400
556
708
860
1008
1156
1316
1464
1464
1308
1136
976
804
640
480
316
148
-8
-164
-332
-508
-600
-544
-456
-384
-308
-228
-156
-132
-136
-132
-136
-136
-132
-128
-124
-132
-136
-132
-132
-128
-132
-132
-128
-124
-124
-124
-124
-124
-124
-120
-120
-112
-112
-108
-112
-108
-104
-100
-96
-88
-92
-88
-84
-80
-80
-76
-68
-64
-56
-52
-52
-44
-40
-40
-32
-24
-20
-16
-16
-12
-4
0
12
16
20
28
36
40
48
52
56
64
72
84
96
112
128
144
160
176
188
204
212
220
232
244
244
236
232
224
216
208
200
196
192
188
184
184
180
152
112
84
48
12
-12
-40
-56
-72
-88
-104
-120
-128
-132
-132
-132
-132
-136
-132
-132
-136
-136
-132
-132
-132
-132
-132
-132
-132
-132
-128
-128
-132
-132
-132
-132
-132
-132
-120
-104
-84
-68
-56
-40
-20
-4
4
12
20
28
36
44
52
56
64
64
64
68
68
64
64
60
56
48
44
32
24
16
8
0
-12
-28
-48
-64
-76
-88
-108
-124
-132
-128
-128
-132
-132
-132
-132
-132
-136
-132
-128
-132
-128
-124
-128
-132
-128
-132
-128
-128
-124
-124
-132
-128
-124
-128
-128
-128
-128
-128
-132
-128
-128
-128
-128
-128
-124
-128
-128
-128
-168
-236
-304
-364
-428
-500
-492
-352
-188
-44
100
256
408
556
712
864
1012
1160
1320
1468
1464
1304
1136
972
808
640
476
312
148
-12
-172
-336
-508
-596
-544
-452
-380
-304
-224
-152
-128
-132
-132
-132
-132
-132
-136
-136-132
-132
-132
-132
-132
-128
-132
-132
-124
-128
-128
-124
-124
-124
-120
-116
-116
-116
-112
-108
-108
-104
-100
-96
-88
-88
-92
-84
-84
-84
-76
-72
-68
-56
-56
-52
-48
-40
-36
-32
-28
-24
-16
-12
-8
-4
0
8
16
24
32
32
40
52
60
60
68
72
84
100
112
124
140
160
176
184
200
212
224
232
244
244
236
228
220
208
204
196
192
188
184
184
184
176
148
112
80
48
16
-20
-48
-60
-76
-88
-96
-112
-128
-132
-128
-132
-136
-132
-128
-132
-136
-136
-132
-132
-132
-128
-132
-136
-136
-132
-132
-132
-132
-128
-132
-132
-132
-132
-120
-100
-80
-68
-56
-40
-20
-4
4
12
20
32
44
44
52
56
56
64
68
64
60
60
64
64
56
44
40
36
24
16
4
0
-12
-28
-44
-60
-76
-92
-108
-128
-132
-132
-132
-132
-132
-132
-128
-132
-132
-132
-132
-132
-128
-128
-128
-124
-128
-128
-124
-128
-128
-128
-128
-128
-128
-124
-128
-128
-124
-124
-128
-124
-124
-124
-128
-124
-124
-124
-124
-128
-172
-236
-296
-360
-424
-500
-488
-344
-188
-44
104
260
412
564
716
868
1020
1168
1324
1472
1460
1300
1124
964
800
636
476
312
148
-12
-180
-344
-512
-592
-540
-452
-376
-304
-228
-152
-124
-132
-136
-132
-132
-128
-132
-132
-132
-132
-132
-136
-132
-132
-132
-128
-128
-128
-124
-124
-124
-124
-120
-120
-120
-116
-116
-116
-112
-104
-100
-96
-96
-92
-88
-88
-84
-80
-76
-72
-68
-64
-60
-52
-48
-44
-40
-32
-24
-20
-16
-12
-8
-4
0
8
12
20
28
36
40
44
48
56
64
72
84
96
108
124
140
160
176
188
204
212
220
232
240
240
236
228
224
212
204
200
192
192
188
184
184
176
152
116
84
48
16
-16
-40
-56
-72
-88
-100
-116
-132
-136
-132
-128
-128
-128
-132
-132
-132
-132
-136
-132
-128
-132
-136
-128
-128
-132
-132
-128
-132
-132
-132
-128
-128
-128
-120
-108
-88
-68
-52
-36
-20
0
8
12
20
28
36
44
52
64
64
60
64
68
64
56
60
60
52
44
40
32
24
16
4
0
-12
-28
-44
-64
-76
-92
-112
-124
-128
-128
-128
-128
-128
-132
-128
-124
-132
-132
-128
-128
-132
-128
-128
-128
-124
-128
-128
-128
-124
-124
-128
-132
-132
-132
-132
-132
-128
-124
-124
-128
-128
-124
-124
-128
-128
-128
-124
-128
-176
-244
-300
-364
-432
-504
-484
-348
-188
-32
108
260
416
564
716
868
1024
1164
1324
1468
1456
1292
1120
960
800
632
468
304
144
-12
-176
-344
-520
-600
-536
-448
-376
-304
-228
-152
-124
-132
-136
-136
-132
-128
-124
-124-132
-132
-128
-132
-132
-128
-124
-124
-124
-128
-128
-128
-128
-124
-124
-116
-116
-116
-108
-108
-108
-100
-96
-96
-92
-88
-88
-84
-80
-76
-76
-72
-68
-60
-56
-48
-44
-40
-36
-36
-28
-20
-16
-12
-12
-4
0
8
16
20
28
36
40
48
56
60
64
72
84
104
116
128
140
160
176
188
200
212
220
232
244
244
236
228
220
212
204
196
192
188
184
184
184
176
148
112
80
48
12
-20
-44
-60
-72
-88
-104
-120
-132
-136
-136
-136
-132
-132
-132
-132
-132
-132
-132
-128
-132
-132
-132
-132
-132
-132
-132
-128
-128
-132
-132
-136
-136
-132
-120
-100
-84
-64
-48
-40
-20
-4
0
8
20
28
36
48
56
64
64
64
64
60
60
60
60
56
56
48
40
36
24
12
4
0
-12
-36
-48
-60
-76
-96
-116
-128
-132
-132
-132
-128
-128
-128
-128
-132
-132
-132
-132
-128
-128
-128
-132
-132
-132
-128
-128
-128
-128
-132
-132
-128
-132
-132
-128
-128
-132
-128
-124
-128
-124
-128
-128
-128
-128
-132
-128
-128
-172
-248
-308
-364
-428
-500
-484
-344
-184
-36
112
264
416
568
716
864
1020
1168
1328
1472
1456
1288
1116
956
788
628
464
296
132
-28
-188
-348
-524
-600
-540
-452
-376
-304
-224
-152
-128
-136
-140
-140
-136
-136
-136
-136
-136
-136
-136
-136
-136
-136
-132
-128
-128
-124
-124
-124
-124
-120
-116
-116
-116
-112
-112
-112
-108
-104
-104
-96
-92
-92
-92
-92
-84
-80
-76
-72
-68
-64
-56
-52
-48
-44
-40
-32
-24
-24
-16
-12
-8
0
4
8
16
20
24
32
40
44
48
56
64
72
84
104
116
128
140
160
176
184
196
212
224
236
244
240
232
228
220
208
208
204
196
188
188
188
188
180
148
112
80
40
8
-16
-40
-56
-72
-88
-104
-120
-128
-132
-132
-132
-132
-132
-136
-136
-132
-132
-132
-132
-132
-132
-136
-132
-132
-132
-132
-132
-128
-132
-132
-132
-132
-132
-120
-100
-84
-68
-52
-36
-16
0
4
12
20
28
36
44
48
56
60
60
64
60
56
56
60
60
52
44
36
28
24
16
4
0
-12
-28
-44
-68
-84
-96
-112
-128
-128
-128
-132
-128
-124
-132
-132
-128
-132
-132
-132
-128
-128
-128
-132
-132
-128
-128
-132
-128
-124
-124
-128
-132
-132
-132
-128
-124
-124
-128
-128
-128
-136
-132
-128
-128
-128
-128
-128
-136
-176
-244
-308
-364
-432
-504
-484
-340
-184
-32
120
268
420
576
728
876
1028
1172
1332
1476
1452
1292
1120
956
792
628
464
300
140
-24
-188
-352
-528
-596
-532
-448
-376
-300
-216
-148
-128
-136
-136
-132
-132
-132
-132
-136